3.0000 2791.6675
3.0200 3041.6675
3.0400 2883.3325
3.0600 2700.0000
3.0800 2783.3325
3.1000 2700.0000
3.1200 2891.6675
3.1400 2758.3325
3.1600 2750.0000
3.1800 2766.6675
3.2000 2608.3325
3.2200 2708.3325
3.2400 2675.0000
3.2600 2566.6675
3.2800 2591.6675
3.3000 2675.0000
3.3200 2691.6675
3.3400 2658.3325
3.3600 2525.0000
3.3800 2558.3325
3.4000 2866.6675
3.4200 2475.0000
3.4400 2458.3325
3.4600 2633.3325
3.4800 2675.0000
3.5000 2716.6675
3.5200 2550.0000
3.5400 2758.3325
3.5600 2466.6675
3.5800 2508.3325
3.6000 2575.0000
3.6200 2508.3325
3.6400 2425.0000
3.6600 2400.0000
3.6800 2483.3325
3.7000 2566.6675
3.7200 2483.3325
3.7400 2608.3325
3.7600 2633.3325
3.7800 2600.0000
3.8000 2458.3325
3.8200 2391.6675
3.8400 2433.3325
3.8600 2616.6675
3.8800 2425.0000
3.9000 2366.6675
3.9200 2558.3325
3.9400 2816.6675
3.9600 2541.6675
3.9800 2400.0000
4.0000 2483.3325
4.0200 2558.3325
4.0400 2525.0000
4.0600 2616.6675
4.0800 2433.3325
4.1000 2750.0000
4.1200 2791.6675
4.1400 2200.0000
4.1600 2416.6675
4.1800 2658.3325
4.2000 2625.0000
4.2200 2658.3325
4.2400 2591.6675
4.2600 2575.0000
4.2800 2600.0000
4.3000 2425.0000
4.3200 2516.6675
4.3400 2541.6675
4.3600 2450.0000
4.3800 2600.0000
4.4000 2350.0000
4.4200 2508.3325
4.4400 2566.6675
4.4600 2508.3325
4.4800 2250.0000
4.5000 2516.6675
4.5200 2500.0000
4.5400 2458.3325
4.5600 2591.6675
4.5800 2658.3325
4.6000 2708.3325
4.6200 2391.6675
4.6400 2458.3325
4.6600 2541.6675
4.6800 2675.0000
4.7000 2425.0000
4.7200 2650.0000
4.7400 2475.0000
4.7600 2608.3325
4.7800 2666.6675
4.8000 2500.0000
4.8200 2716.6675
4.8400 2733.3325
4.8600 2433.3325
4.8800 2383.3325
4.9000 2408.3325
4.9200 2641.6675
4.9400 2675.0000
4.9600 2533.3325
4.9800 2525.0000
5.0000 2675.0000
5.0200 2741.6675
5.0400 2875.0000
5.0600 2625.0000
5.0800 2658.3325
5.1000 2716.6675
5.1200 2458.3325
5.1400 2508.3325
5.1600 2575.0000
5.1800 2333.3325
5.2000 2641.6675
5.2200 2516.6675
5.2400 2616.6675
5.2600 2658.3325
5.2800 2725.0000
5.3000 2741.6675
5.3200 2941.6675
5.3400 2991.6675
5.3600 2825.0000
5.3800 2783.3325
5.4000 2833.3325
5.4200 2800.0000
5.4400 2683.3325
5.4600 2783.3325
5.4800 2666.6675
5.5000 3008.3325
5.5200 2925.0000
5.5400 2891.6675
5.5600 2766.6675
5.5800 2725.0000
5.6000 2850.0000
5.6200 2950.0000
5.6400 3075.0000
5.6600 2716.6675
5.6800 2725.0000
5.7000 2833.3325
5.7200 2875.0000
5.7400 2875.0000
5.7600 2891.6675
5.7800 2766.6675
5.8000 2883.3325
5.8200 2875.0000
5.8400 2791.6675
5.8600 2933.3325
5.8800 2841.6675
5.9000 2775.0000
5.9200 3041.6675
5.9400 2800.0000
5.9600 3158.3325
5.9800 3000.0000
6.0000 2816.6675
6.0200 2891.6675
6.0400 2925.0000
6.0600 2858.3325
6.0800 2725.0000
6.1000 2650.0000
6.1200 3008.3325
6.1400 2983.3325
6.1600 2850.0000
6.1800 2916.6675
6.2000 2908.3325
6.2200 2941.6675
6.2400 2900.0000
6.2600 2983.3325
6.2800 2900.0000
6.3000 2950.0000
6.3200 3000.0000
6.3400 2916.6675
6.3600 2758.3325
6.3800 2875.0000
6.4000 2833.3325
6.4200 2958.3325
6.4400 2666.6675
6.4600 2958.3325
6.4800 2983.3325
6.5000 3100.0000
6.5200 2991.6675
6.5400 3008.3325
6.5600 2983.3325
6.5800 3000.0000
6.6000 2858.3325
6.6200 3008.3325
6.6400 3208.3325
6.6600 3116.6675
6.6800 2975.0000
6.7000 2575.0000
6.7200 2875.0000
6.7400 3008.3325
6.7600 3075.0000
6.7800 3125.0000
6.8000 2933.3325
6.8200 2900.0000
6.8400 3133.3325
6.8600 3258.3325
6.8800 3133.3325
6.9000 2975.0000
6.9200 3066.6675
6.9400 3091.6675
6.9600 3008.3325
6.9800 3300.0000
7.0000 3250.0000
7.0200 3183.3325
7.0400 2908.3325
7.0600 2900.0000
7.0800 3166.6675
7.1000 3125.0000
7.1200 2825.0000
7.1400 2958.3325
7.1600 2908.3325
7.1800 3158.3325
7.2000 3166.6675
7.2200 2975.0000
7.2400 2891.6675
7.2600 2791.6675
7.2800 2933.3325
7.3000 3033.3325
7.3200 3083.3325
7.3400 3025.0000
7.3600 3191.6675
7.3800 3075.0000
7.4000 3183.3325
7.4200 3175.0000
7.4400 3366.6675
7.4600 3258.3325
7.4800 2766.6675
7.5000 2933.3325
7.5200 3183.3325
7.5400 3283.3325
7.5600 3066.6675
7.5800 3041.6675
7.6000 3075.0000
7.6200 2983.3325
7.6400 2841.6675
7.6600 2875.0000
7.6800 3141.6675
7.7000 3266.6675
7.7200 3200.0000
7.7400 3025.0000
7.7600 3108.3325
7.7800 3166.6675
7.8000 3183.3325
7.8200 3250.0000
7.8400 2950.0000
7.8600 3183.3325
7.8800 3133.3325
7.9000 3016.6675
7.9200 3200.0000
7.9400 3033.3325
7.9600 3125.0000
7.9800 3175.0000
8.0000 2758.3325
8.0200 3175.0000
8.0400 3066.6675
8.0600 3183.3325
8.0800 3350.0000
8.1000 3200.0000
8.1200 3141.6675
8.1400 3066.6675
8.1600 3350.0000
8.1800 3066.6675
8.2000 3125.0000
8.2200 3308.3325
8.2400 3316.6675
8.2600 3166.6675
8.2800 3066.6675
8.3000 2958.3325
8.3200 3166.6675
8.3400 3183.3325
8.3600 3000.0000
8.3800 3191.6675
8.4000 3133.3325
8.4200 3066.6675
8.4400 3100.0000
8.4600 3208.3325
8.4800 2858.3325
8.5000 2850.0000
8.5200 3166.6675
8.5400 3450.0000
8.5600 3291.6675
8.5800 3233.3325
8.6000 3191.6675
8.6200 2975.0000
8.6400 3091.6675
8.6600 3016.6675
8.6800 3216.6675
8.7000 3100.0000
8.7200 3358.3325
8.7400 3325.0000
8.7600 3316.6675
8.7800 3100.0000
8.8000 3225.0000
8.8200 3116.6675
8.8400 3191.6675
8.8600 3158.3325
8.8800 3166.6675
8.9000 2975.0000
8.9200 3141.6675
8.9400 3066.6675
8.9600 3166.6675
8.9800 3041.6675
9.0000 3058.3325
9.0200 3000.0000
9.0400 3183.3325
9.0600 3025.0000
9.0800 3183.3325
9.1000 3100.0000
9.1200 2891.6675
9.1400 3150.0000
9.1600 3200.0000
9.1800 3133.3325
9.2000 3308.3325
9.2200 3183.3325
9.2400 2983.3325
9.2600 3350.0000
9.2800 3066.6675
9.3000 3458.3325
9.3200 3233.3325
9.3400 3158.3325
9.3600 3258.3325
9.3800 3150.0000
9.4000 3333.3325
9.4200 3183.3325
9.4400 3233.3325
9.4600 3225.0000
9.4800 3266.6675
9.5000 3208.3325
9.5200 3258.3325
9.5400 3183.3325
9.5600 3100.0000
9.5800 3075.0000
9.6000 3291.6675
9.6200 3125.0000
9.6400 3175.0000
9.6600 3166.6675
9.6800 3108.3325
9.7000 3050.0000
9.7200 3200.0000
9.7400 3033.3325
9.7600 3275.0000
9.7800 3183.3325
9.8000 3108.3325
9.8200 2941.6675
9.8400 3283.3325
9.8600 3200.0000
9.8800 3133.3325
9.9000 3000.0000
9.9200 3316.6675
9.9400 3158.3325
9.9600 3408.3325
9.9800 3300.0000
10.0000 3225.0000
10.0200 3266.6675
10.0400 3141.6675
10.0600 3283.3325
10.0800 3200.0000
10.1000 3216.6675
10.1200 3133.3325
10.1400 3041.6675
10.1600 3308.3325
10.1800 3358.3325
10.2000 3033.3325
10.2200 3083.3325
10.2400 3325.0000
10.2600 3058.3325
10.2800 3400.0000
10.3000 3116.6675
10.3200 3100.0000
10.3400 3325.0000
10.3600 3200.0000
10.3800 3400.0000
10.4000 3133.3325
10.4200 3450.0000
10.4400 3175.0000
10.4600 3050.0000
10.4800 3383.3325
10.5000 3208.3325
10.5200 3058.3325
10.5400 3050.0000
10.5600 3408.3325
10.5800 3133.3325
10.6000 3258.3325
10.6200 3208.3325
10.6400 3141.6675
10.6600 2958.3325
10.6800 3183.3325
10.7000 3175.0000
10.7200 3291.6675
10.7400 3166.6675
10.7600 3300.0000
10.7800 3033.3325
10.8000 3066.6675
10.8200 3000.0000
10.8400 3008.3325
10.8600 3241.6675
10.8800 3250.0000
10.9000 3300.0000
10.9200 3225.0000
10.9400 3216.6675
10.9600 3483.3325
10.9800 3025.0000
11.0000 3116.6675
11.0200 3175.0000
11.0400 3308.3325
11.0600 3150.0000
11.0800 3075.0000
11.1000 3175.0000
11.1200 3216.6675
11.1400 3300.0000
11.1600 3008.3325
11.1800 3250.0000
11.2000 2966.6675
11.2200 3483.3325
11.2400 3033.3325
11.2600 3250.0000
11.2800 3116.6675
11.3000 3483.3325
11.3200 3225.0000
11.3400 2958.3325
11.3600 2991.6675
11.3800 3108.3325
11.4000 3308.3325
11.4200 3166.6675
11.4400 3233.3325
11.4600 3175.0000
11.4800 3033.3325
11.5000 2950.0000
11.5200 3308.3325
11.5400 3391.6675
11.5600 3183.3325
11.5800 2750.0000
11.6000 3333.3325
11.6200 3266.6675
11.6400 3291.6675
11.6600 2933.3325
11.6800 3125.0000
11.7000 3233.3325
11.7200 3075.0000
11.7400 3350.0000
11.7600 3633.3325
11.7800 3225.0000
11.8000 3141.6675
11.8200 2941.6675
11.8400 2975.0000
11.8600 3158.3325
11.8800 3358.3325
11.9000 2991.6675
11.9200 3275.0000
11.9400 3258.3325
11.9600 3191.6675
11.9800 3441.6675
12.0000 3166.6675
12.0200 2850.0000
12.0400 3008.3325
12.0600 3275.0000
12.0800 3191.6675
12.1000 2725.0000
12.1200 2816.6675
12.1400 3450.0000
12.1600 3308.3325
12.1800 3175.0000
12.2000 3025.0000
12.2200 3050.0000
12.2400 2950.0000
12.2600 2966.6675
12.2800 3333.3325
12.3000 3083.3325
12.3200 3108.3325
12.3400 2825.0000
12.3600 3283.3325
12.3800 3191.6675
12.4000 3116.6675
12.4200 3041.6675
12.4400 3191.6675
12.4600 3158.3325
12.4800 3116.6675
12.5000 3125.0000
12.5200 3100.0000
12.5400 3150.0000
12.5600 3016.6675
12.5800 3358.3325
12.6000 3241.6675
12.6200 2766.6675
12.6400 3291.6675
12.6600 3283.3325
12.6800 3333.3325
12.7000 3491.6675
12.7200 3208.3325
12.7400 3175.0000
12.7600 3200.0000
12.7800 3075.0000
12.8000 3475.0000
12.8200 3383.3325
12.8400 3058.3325
12.8600 3150.0000
12.8800 3175.0000
12.9000 3300.0000
12.9200 3025.0000
12.9400 3358.3325
12.9600 3283.3325
12.9800 3308.3325
13.0000 3616.6675
13.0200 3358.3325
13.0400 3116.6675
13.0600 3166.6675
13.0800 3216.6675
13.1000 3066.6675
13.1200 3241.6675
13.1400 3116.6675
13.1600 3200.0000
13.1800 3283.3325
13.2000 3241.6675
13.2200 3258.3325
13.2400 2991.6675
13.2600 3208.3325
13.2800 3166.6675
13.3000 3266.6675
13.3200 3333.3325
13.3400 3533.3325
13.3600 3508.3325
13.3800 3266.6675
13.4000 3275.0000
13.4200 3258.3325
13.4400 3141.6675
13.4600 3091.6675
13.4800 3458.3325
13.5000 3200.0000
13.5200 3083.3325
13.5400 3266.6675
13.5600 3208.3325
13.5800 3241.6675
13.6000 2941.6675
13.6200 3525.0000
13.6400 3283.3325
13.6600 3333.3325
13.6800 3175.0000
13.7000 2950.0000
13.7200 3200.0000
13.7400 3333.3325
13.7600 3150.0000
13.7800 3116.6675
13.8000 3341.6675
13.8200 3166.6675
13.8400 3050.0000
13.8600 2966.6675
13.8800 3350.0000
13.9000 3175.0000
13.9200 3366.6675
13.9400 3358.3325
13.9600 3641.6675
13.9800 3308.3325
14.0000 3208.3325
14.0200 3433.3325
14.0400 3091.6675
14.0600 3383.3325
14.0800 3383.3325
14.1000 3241.6675
14.1200 2983.3325
14.1400 3325.0000
14.1600 3275.0000
14.1800 3383.3325
14.2000 3466.6675
14.2200 3416.6675
14.2400 3600.0000
14.2600 3141.6675
14.2800 3191.6675
14.3000 3350.0000
14.3200 3216.6675
14.3400 3141.6675
14.3600 3325.0000
14.3800 3233.3325
14.4000 3325.0000
14.4200 3383.3325
14.4400 3450.0000
14.4600 3458.3325
14.4800 3408.3325
14.5000 3675.0000
14.5200 3608.3325
14.5400 3608.3325
14.5600 4141.6675
14.5800 4216.6675
14.6000 4883.3325
14.6200 5641.6675
14.6400 5950.0000
14.6600 6775.0000
14.6800 7125.0000
14.7000 7375.0000
14.7200 7266.6675
14.7400 6900.0000
14.7600 6383.3325
14.7800 5891.6675
14.8000 5458.3325
14.8200 5166.6675
14.8400 4358.3325
14.8600 4033.3325
14.8800 3775.0000
14.9000 3341.6675
14.9200 3541.6675
14.9400 3433.3325
14.9600 3391.6675
14.9800 3458.3325
15.0000 3691.6675
15.0200 3516.6675
15.0400 3700.0000
15.0600 3433.3325
15.0800 3458.3325
15.1000 3475.0000
15.1200 3358.3325
15.1400 3591.6675
15.1600 3308.3325
15.1800 3408.3325
15.2000 3566.6675
15.2200 3375.0000
15.2400 3500.0000
15.2600 3466.6675
15.2800 3283.3325
15.3000 3733.3325
15.3200 3366.6675
15.3400 3325.0000
15.3600 3483.3325
15.3800 3200.0000
15.4000 3333.3325
15.4200 3158.3325
15.4400 3425.0000
15.4600 3416.6675
15.4800 3491.6675
15.5000 3283.3325
15.5200 3350.0000
15.5400 3283.3325
15.5600 3091.6675
15.5800 3116.6675
15.6000 3291.6675
15.6200 3275.0000
15.6400 3258.3325
15.6600 3300.0000
15.6800 3416.6675
15.7000 3625.0000
15.7200 3433.3325
15.7400 3475.0000
15.7600 3625.0000
15.7800 3733.3325
15.8000 3266.6675
15.8200 3408.3325
15.8400 3791.6675
15.8600 3691.6675
15.8800 3241.6675
15.9000 3600.0000
15.9200 3358.3325
15.9400 3108.3325
15.9600 3500.0000
15.9800 3325.0000
16.0000 3508.3325
16.0200 3375.0000
16.0400 3441.6675
16.0600 3566.6675
16.0800 3883.3325
16.1000 3625.0000
16.1200 3175.0000
16.1400 3483.3325
16.1600 3625.0000
16.1800 3383.3325
16.2000 3366.6675
16.2200 3333.3325
16.2400 3200.0000
16.2600 3141.6675
16.2800 3175.0000
16.3000 3641.6675
16.3200 3741.6675
16.3400 3316.6675
16.3600 3633.3325
16.3800 3325.0000
16.4000 3466.6675
16.4200 3400.0000
16.4400 3600.0000
16.4600 3641.6675
16.4800 3366.6675
16.5000 3400.0000
16.5200 3683.3325
16.5400 3616.6675
16.5600 3666.6675
16.5800 3350.0000
16.6000 3516.6675
16.6200 3491.6675
16.6400 3700.0000
16.6600 3566.6675
16.6800 3150.0000
16.7000 3458.3325
16.7200 3608.3325
16.7400 3166.6675
16.7600 3666.6675
16.7800 3308.3325
16.8000 3225.0000
16.8200 3441.6675
16.8400 3500.0000
16.8600 3516.6675
16.8800 3491.6675
16.9000 3458.3325
16.9200 3483.3325
16.9400 3308.3325
16.9600 3625.0000
16.9800 3400.0000
17.0000 3333.3325
17.0200 3775.0000
17.0400 3733.3325
17.0600 3516.6675
17.0800 3300.0000
17.1000 3450.0000
17.1200 3841.6675
17.1400 3416.6675
17.1600 3408.3325
17.1800 3583.3325
17.2000 3450.0000
17.2200 3466.6675
17.2400 3633.3325
17.2600 3600.0000
17.2800 3608.3325
17.3000 3291.6675
17.3200 3358.3325
17.3400 3575.0000
17.3600 3675.0000
17.3800 3558.3325
17.4000 3533.3325
17.4200 3458.3325
17.4400 3775.0000
17.4600 3791.6675
17.4800 3800.0000
17.5000 3691.6675
17.5200 3983.3325
17.5400 3683.3325
17.5600 3766.6675
17.5800 3633.3325
17.6000 3808.3325
17.6200 3358.3325
17.6400 3716.6675
17.6600 3575.0000
17.6800 3516.6675
17.7000 3691.6675
17.7200 3491.6675
17.7400 3425.0000
17.7600 3391.6675
17.7800 3466.6675
17.8000 3558.3325
17.8200 3700.0000
17.8400 3833.3325
17.8600 3716.6675
17.8800 3691.6675
17.9000 3700.0000
17.9200 3683.3325
17.9400 3466.6675
17.9600 3575.0000
17.9800 3741.6675
18.0000 3783.3325
18.0200 3791.6675
18.0400 3875.0000
18.0600 3783.3325
18.0800 3816.6675
18.1000 4066.6675
18.1200 3766.6675
18.1400 3741.6675
18.1600 3475.0000
18.1800 3716.6675
18.2000 3658.3325
18.2200 3633.3325
18.2400 3616.6675
18.2600 3400.0000
18.2800 3775.0000
18.3000 3791.6675
18.3200 4258.3325
18.3400 3875.0000
18.3600 4000.0000
18.3800 3675.0000
18.4000 3975.0000
18.4200 3891.6675
18.4400 3783.3325
18.4600 3725.0000
18.4800 3883.3325
18.5000 3875.0000
18.5200 3866.6675
18.5400 3916.6675
18.5600 3558.3325
18.5800 3883.3325
18.6000 3775.0000
18.6200 3725.0000
18.6400 4225.0000
18.6600 3816.6675
18.6800 4091.6675
18.7000 3658.3325
18.7200 3925.0000
18.7400 3733.3325
18.7600 3608.3325
18.7800 3933.3325
18.8000 3750.0000
18.8200 4233.3325
18.8400 4125.0000
18.8600 3816.6675
18.8800 4050.0000
18.9000 4258.3325
18.9200 4158.3325
18.9400 3866.6675
18.9600 4125.0000
18.9800 3875.0000
19.0000 3750.0000
19.0200 3866.6675
19.0400 3916.6675
19.0600 3800.0000
19.0800 3708.3325
19.1000 4033.3325
19.1200 3925.0000
19.1400 3583.3325
19.1600 3608.3325
19.1800 3758.3325
19.2000 3991.6675
19.2200 3916.6675
19.2400 4083.3325
19.2600 4225.0000
19.2800 4458.3325
19.3000 4133.3325
19.3200 3666.6675
19.3400 3983.3325
19.3600 3866.6675
19.3800 3900.0000
19.4000 3883.3325
19.4200 3900.0000
19.4400 4083.3325
19.4600 3916.6675
19.4800 4250.0000
19.5000 4208.3325
19.5200 3800.0000
19.5400 4008.3325
19.5600 3791.6675
19.5800 3916.6675
19.6000 4191.6675
19.6200 4125.0000
19.6400 4033.3325
19.6600 3858.3325
19.6800 3933.3325
19.7000 4200.0000
19.7200 4058.3325
19.7400 3975.0000
19.7600 4066.6675
19.7800 4075.0000
19.8000 4250.0000
19.8200 4450.0000
19.8400 4266.6675
19.8600 4050.0000
19.8800 4175.0000
19.9000 3916.6675
19.9200 3741.6675
19.9400 4025.0000
19.9600 4000.0000
19.9800 3816.6675
20.0000 4225.0000
20.0200 4033.3325
20.0400 3883.3325
20.0600 4008.3325
20.0800 4341.6675
20.1000 4233.3325
20.1200 4158.3325
20.1400 4225.0000
20.1600 4050.0000
20.1800 4333.3325
20.2000 4308.3325
20.2200 4066.6675
20.2400 4516.6675
20.2600 4025.0000
20.2800 4091.6675
20.3000 4000.0000
20.3200 4191.6675
20.3400 3883.3325
20.3600 4425.0000
20.3800 4600.0000
20.4000 4283.3325
20.4200 3941.6675
20.4400 4341.6675
20.4600 4200.0000
20.4800 4566.6675
20.5000 4350.0000
20.5200 4291.6675
20.5400 4383.3325
20.5600 4500.0000
20.5800 4108.3325
20.6000 4041.6675
20.6200 4016.6675
20.6400 4241.6675
20.6600 4508.3325
20.6800 4241.6675
20.7000 4541.6675
20.7200 4466.6675
20.7400 4208.3325
20.7600 4691.6675
20.7800 4375.0000
20.8000 4200.0000
20.8200 4450.0000
20.8400 4225.0000
20.8600 4283.3325
20.8800 4500.0000
20.9000 4266.6675
20.9200 4491.6675
20.9400 4558.3325
20.9600 4408.3325
20.9800 4525.0000
21.0000 4550.0000
21.0200 4358.3325
21.0400 4408.3325
21.0600 4241.6675
21.0800 4341.6675
21.1000 4500.0000
21.1200 4041.6675
21.1400 4400.0000
21.1600 4475.0000
21.1800 4433.3325
21.2000 4141.6675
21.2200 4216.6675
21.2400 4191.6675
21.2600 4466.6675
21.2800 4600.0000
21.3000 4458.3325
21.3200 4475.0000
21.3400 4491.6675
21.3600 4425.0000
21.3800 4133.3325
21.4000 4283.3325
21.4200 4166.6675
21.4400 4525.0000
21.4600 4416.6675
21.4800 4341.6675
21.5000 4591.6675
21.5200 4650.0000
21.5400 4450.0000
21.5600 4591.6675
21.5800 4583.3325
21.6000 4808.3325
21.6200 4383.3325
21.6400 4625.0000
21.6600 4358.3325
21.6800 4375.0000
21.7000 4350.0000
21.7200 4741.6675
21.7400 4391.6675
21.7600 4375.0000
21.7800 4458.3325
21.8000 4491.6675
21.8200 4800.0000
21.8400 4900.0000
21.8600 4916.6675
21.8800 4850.0000
21.9000 4591.6675
21.9200 4533.3325
21.9400 4758.3325
21.9600 4458.3325
21.9800 4541.6675
22.0000 4650.0000
22.0200 4708.3325
22.0400 4500.0000
22.0600 4358.3325
22.0800 4950.0000
22.1000 4841.6675
22.1200 4983.3325
22.1400 4691.6675
22.1600 4975.0000
22.1800 4475.0000
22.2000 4658.3325
22.2200 4466.6675
22.2400 4800.0000
22.2600 4700.0000
22.2800 4733.3325
22.3000 4575.0000
22.3200 4750.0000
22.3400 4900.0000
22.3600 4791.6675
22.3800 4725.0000
22.4000 4858.3325
22.4200 4708.3325
22.4400 4491.6675
22.4600 4633.3325
22.4800 4516.6675
22.5000 5083.3325
22.5200 4983.3325
22.5400 5016.6675
22.5600 4966.6675
22.5800 4800.0000
22.6000 4725.0000
22.6200 5008.3325
22.6400 5083.3325
22.6600 4750.0000
22.6800 5125.0000
22.7000 5000.0000
22.7200 4700.0000
22.7400 4708.3325
22.7600 4916.6675
22.7800 4825.0000
22.8000 4883.3325
22.8200 5258.3325
22.8400 4858.3325
22.8600 4841.6675
22.8800 4766.6675
22.9000 4683.3325
22.9200 4791.6675
22.9400 4825.0000
22.9600 4916.6675
22.9800 4608.3325
23.0000 4641.6675
23.0200 4758.3325
23.0400 5033.3325
23.0600 5008.3325
23.0800 4883.3325
23.1000 4883.3325
23.1200 4866.6675
23.1400 4716.6675
23.1600 4450.0000
23.1800 4625.0000
23.2000 4716.6675
23.2200 4525.0000
23.2400 4916.6675
23.2600 4891.6675
23.2800 4841.6675
23.3000 4783.3325
23.3200 5000.0000
23.3400 5075.0000
23.3600 5000.0000
23.3800 5050.0000
23.4000 4875.0000
23.4200 5058.3325
23.4400 4708.3325
23.4600 5033.3325
23.4800 4866.6675
23.5000 4866.6675
23.5200 4950.0000
23.5400 4658.3325
23.5600 5033.3325
23.5800 5058.3325
23.6000 4916.6675
23.6200 5075.0000
23.6400 5250.0000
23.6600 5125.0000
23.6800 4883.3325
23.7000 5008.3325
23.7200 4783.3325
23.7400 5233.3325
23.7600 5091.6675
23.7800 4908.3325
23.8000 5066.6675
23.8200 5133.3325
23.8400 5408.3325
23.8600 5325.0000
23.8800 5250.0000
23.9000 5216.6675
23.9200 5675.0000
23.9400 5425.0000
23.9600 5600.0000
23.9800 5683.3325
24.0000 5558.3325
24.0200 5716.6675
24.0400 6408.3325
24.0600 6858.3325
24.0800 7533.3325
24.1000 8900.0000
24.1200 10650.0000
24.1400 12725.0000
24.1600 15716.6675
24.1800 16516.6675
24.2000 16008.3325
24.2200 15691.6675
24.2400 14866.6675
24.2600 13958.3325
24.2800 12250.0000
24.3000 10691.6675
24.3200 9083.3325
24.3400 8016.6675
24.3600 7083.3325
24.3800 6116.6675
24.4000 5841.6675
24.4200 5708.3325
24.4400 5933.3325
24.4600 5666.6675
24.4800 5416.6675
24.5000 5525.0000
24.5200 5441.6675
24.5400 5316.6675
24.5600 5275.0000
24.5800 5308.3325
24.6000 5100.0000
24.6200 5275.0000
24.6400 5175.0000
24.6600 5541.6675
24.6800 5166.6675
24.7000 5250.0000
24.7200 4825.0000
24.7400 5266.6675
24.7600 5600.0000
24.7800 5100.0000
24.8000 5266.6675
24.8200 5275.0000
24.8400 5366.6675
24.8600 5458.3325
24.8800 5233.3325
24.9000 5641.6675
24.9200 5425.0000
24.9400 5233.3325
24.9600 5641.6675
24.9800 5466.6675
25.0000 5216.6675
25.0200 5033.3325
25.0400 5316.6675
25.0600 5250.0000
25.0800 5008.3325
25.1000 5525.0000
25.1200 5375.0000
25.1400 5200.0000
25.1600 5108.3325
25.1800 4850.0000
25.2000 5300.0000
25.2200 5108.3325
25.2400 5383.3325
25.2600 5291.6675
25.2800 4808.3325
25.3000 5100.0000
25.3200 5200.0000
25.3400 5200.0000
25.3600 4916.6675
25.3800 5491.6675
25.4000 5158.3325
25.4200 4733.3325
25.4400 5300.0000
25.4600 5350.0000
25.4800 5433.3325
25.5000 4891.6675
25.5200 5616.6675
25.5400 5566.6675
25.5600 5366.6675
25.5800 5216.6675
25.6000 5108.3325
25.6200 5383.3325
25.6400 5308.3325
25.6600 5333.3325
25.6800 5041.6675
25.7000 5233.3325
25.7200 5291.6675
25.7400 5358.3325
25.7600 5375.0000
25.7800 5433.3325
25.8000 5391.6675
25.8200 5450.0000
25.8400 5150.0000
25.8600 5000.0000
25.8800 4983.3325
25.9000 5441.6675
25.9200 5391.6675
25.9400 5666.6675
25.9600 5258.3325
25.9800 5166.6675
26.0000 5341.6675
26.0200 5400.0000
26.0400 5208.3325
26.0600 4933.3325
26.0800 5083.3325
26.1000 5325.0000
26.1200 4950.0000
26.1400 5375.0000
26.1600 5208.3325
26.1800 5241.6675
26.2000 5425.0000
26.2200 5008.3325
26.2400 5250.0000
26.2600 5041.6675
26.2800 5266.6675
26.3000 5408.3325
26.3200 5508.3325
26.3400 5325.0000
26.3600 5325.0000
26.3800 5266.6675
26.4000 5275.0000
26.4200 5158.3325
26.4400 5300.0000
26.4600 5458.3325
26.4800 5433.3325
26.5000 5400.0000
26.5200 5425.0000
26.5400 5158.3325
26.5600 5308.3325
26.5800 5441.6675
26.6000 5250.0000
26.6200 5475.0000
26.6400 5416.6675
26.6600 5675.0000
26.6800 5691.6675
26.7000 5691.6675
26.7200 5758.3325
26.7400 6058.3325
26.7600 5791.6675
26.7800 5983.3325
26.8000 5908.3325
26.8200 5808.3325
26.8400 5558.3325
26.8600 5625.0000
26.8800 5916.6675
26.9000 6050.0000
26.9200 5875.0000
26.9400 5575.0000
26.9600 5616.6675
26.9800 5600.0000
27.0000 5225.0000
27.0200 5283.3325
27.0400 5558.3325
27.0600 5683.3325
27.0800 5416.6675
27.1000 5591.6675
27.1200 5333.3325
27.1400 5300.0000
27.1600 5175.0000
27.1800 5533.3325
27.2000 5066.6675
27.2200 5483.3325
27.2400 5500.0000
27.2600 5583.3325
27.2800 5408.3325
27.3000 5283.3325
27.3200 5133.3325
27.3400 5366.6675
27.3600 5575.0000
27.3800 5583.3325
27.4000 5008.3325
27.4200 5533.3325
27.4400 5200.0000
27.4600 5425.0000
27.4800 5775.0000
27.5000 5608.3325
27.5200 5391.6675
27.5400 5366.6675
27.5600 5600.0000
27.5800 5641.6675
27.6000 5725.0000
27.6200 5325.0000
27.6400 5291.6675
27.6600 6041.6675
27.6800 5450.0000
27.7000 5591.6675
27.7200 5875.0000
27.7400 5516.6675
27.7600 5841.6675
27.7800 5966.6675
27.8000 5633.3325
27.8200 5483.3325
27.8400 5500.0000
27.8600 5608.3325
27.8800 5908.3325
27.9000 5533.3325
27.9200 5816.6675
27.9400 5825.0000
27.9600 5816.6675
27.9800 5791.6675
28.0000 5958.3325
28.0200 6108.3325
28.0400 6233.3325
28.0600 6033.3325
28.0800 6133.3325
28.1000 6033.3325
28.1200 6291.6675
28.1400 5966.6675
28.1600 6016.6675
28.1800 6383.3325
28.2000 6258.3325
28.2200 6475.0000
28.2400 6900.0000
28.2600 7041.6675
28.2800 7708.3325
28.3000 8633.3325
28.3200 9516.6675
28.3400 11141.6675
28.3600 13316.6675
28.3800 16983.3325
28.4000 21866.6675
28.4200 29325.0000
28.4400 35508.3325
28.4600 38033.3325
28.4800 36891.6675
28.5000 35525.0000
28.5200 34683.3325
28.5400 30391.6675
28.5600 26475.0000
28.5800 22191.6675
28.6000 18158.3325
28.6200 15516.6675
28.6400 12283.3325
28.6600 10558.3325
28.6800 9183.3325
28.7000 8116.6675
28.7200 7525.0000
28.7400 7550.0000
28.7600 6308.3325
28.7800 6816.6675
28.8000 6716.6675
28.8200 6433.3325
28.8400 6758.3325
28.8600 6516.6675
28.8800 5933.3325
28.9000 6258.3325
28.9200 6300.0000
28.9400 6141.6675
28.9600 6200.0000
28.9800 6183.3325
29.0000 6000.0000
29.0200 6333.3325
29.0400 6075.0000
29.0600 6133.3325
29.0800 6166.6675
29.1000 6066.6675
29.1200 6358.3325
29.1400 6100.0000
29.1600 5850.0000
29.1800 6225.0000
29.2000 6150.0000
29.2200 5841.6675
29.2400 6041.6675
29.2600 6416.6675
29.2800 5800.0000
29.3000 6200.0000
29.3200 6250.0000
29.3400 6533.3325
29.3600 6400.0000
29.3800 6308.3325
29.4000 6425.0000
29.4200 6416.6675
29.4400 6308.3325
29.4600 6775.0000
29.4800 7016.6675
29.5000 7225.0000
29.5200 7325.0000
29.5400 7883.3325
29.5600 7741.6675
29.5800 8050.0000
29.6000 9475.0000
29.6200 10558.3325
29.6400 12633.3325
29.6600 16158.3325
29.6800 19083.3325
29.7000 26000.0000
29.7200 34250.0000
29.7400 42258.3325
29.7600 43625.0000
29.7800 42233.3325
29.8000 39491.6675
29.8200 38450.0000
29.8400 36916.6675
29.8600 31425.0000
29.8800 25441.6675
29.9000 20816.6675
29.9200 17333.3325
29.9400 14300.0000
29.9600 12333.3325
29.9800 10533.3325
30.0000 8533.3325
30.0200 7333.3325
30.0400 7175.0000
30.0600 7200.0000
30.0800 7366.6675
30.1000 6925.0000
30.1200 6608.3325
30.1400 6575.0000
30.1600 6250.0000
30.1800 6558.3325
30.2000 6458.3325
30.2200 6466.6675
30.2400 6275.0000
30.2600 5875.0000
30.2800 6125.0000
30.3000 5808.3325
30.3200 5816.6675
30.3400 5208.3325
30.3600 5666.6675
30.3800 5733.3325
30.4000 5675.0000
30.4200 5516.6675
30.4400 5808.3325
30.4600 5691.6675
30.4800 5391.6675
30.5000 5716.6675
30.5200 5716.6675
30.5400 5625.0000
30.5600 5175.0000
30.5800 5375.0000
30.6000 5441.6675
30.6200 5500.0000
30.6400 5641.6675
30.6600 5791.6675
30.6800 5650.0000
30.7000 6050.0000
30.7200 5691.6675
30.7400 5350.0000
30.7600 5400.0000
30.7800 5208.3325
30.8000 5550.0000
30.8200 5566.6675
30.8400 5150.0000
30.8600 5316.6675
30.8800 5600.0000
30.9000 5483.3325
30.9200 5400.0000
30.9400 5500.0000
30.9600 5800.0000
30.9800 5550.0000
31.0000 5716.6675
31.0200 5516.6675
31.0400 5716.6675
31.0600 5425.0000
31.0800 5425.0000
31.1000 5583.3325
31.1200 5508.3325
31.1400 5908.3325
31.1600 5725.0000
31.1800 5441.6675
31.2000 5416.6675
31.2200 5200.0000
31.2400 5400.0000
31.2600 5458.3325
31.2800 5283.3325
31.3000 5591.6675
31.3200 5558.3325
31.3400 5300.0000
31.3600 5558.3325
31.3800 5741.6675
31.4000 5433.3325
31.4200 5566.6675
31.4400 5258.3325
31.4600 5225.0000
31.4800 4933.3325
31.5000 5375.0000
31.5200 5500.0000
31.5400 5541.6675
31.5600 5116.6675
31.5800 5225.0000
31.6000 5066.6675
31.6200 5358.3325
31.6400 5333.3325
31.6600 5200.0000
31.6800 5400.0000
31.7000 5533.3325
31.7200 5566.6675
31.7400 5608.3325
31.7600 4758.3325
31.7800 5283.3325
31.8000 5408.3325
31.8200 5383.3325
31.8400 5325.0000
31.8600 5725.0000
31.8800 5283.3325
31.9000 5158.3325
31.9200 5475.0000
31.9400 5316.6675
31.9600 5141.6675
31.9800 5425.0000
32.0000 5125.0000
32.0200 5075.0000
32.0400 5041.6675
32.0600 5141.6675
32.0800 5025.0000
32.1000 5000.0000
32.1200 5166.6675
32.1400 5366.6675
32.1600 5308.3325
32.1800 5200.0000
32.2000 5533.3325
32.2200 5316.6675
32.2400 5091.6675
32.2600 5391.6675
32.2800 5258.3325
32.3000 5466.6675
32.3200 5341.6675
32.3400 5050.0000
32.3600 5175.0000
32.3800 5041.6675
32.4000 5200.0000
32.4200 5283.3325
32.4400 4975.0000
32.4600 5100.0000
32.4800 5375.0000
32.5000 5458.3325
32.5200 5300.0000
32.5400 5141.6675
32.5600 5141.6675
32.5800 5166.6675
32.6000 5183.3325
32.6200 5141.6675
32.6400 5033.3325
32.6600 5308.3325
32.6800 5175.0000
32.7000 5075.0000
32.7200 5258.3325
32.7400 5116.6675
32.7600 5191.6675
32.7800 5591.6675
32.8000 5250.0000
32.8200 5158.3325
32.8400 5191.6675
32.8600 5308.3325
32.8800 5375.0000
32.9000 5125.0000
32.9200 4941.6675
32.9400 5025.0000
32.9600 4841.6675
32.9800 5041.6675
33.0000 5041.6675
33.0200 5158.3325
33.0400 5050.0000
33.0600 5333.3325
33.0800 5050.0000
33.1000 5066.6675
33.1200 5375.0000
33.1400 5191.6675
33.1600 5125.0000
33.1800 5100.0000
33.2000 5216.6675
33.2200 5058.3325
33.2400 4975.0000
33.2600 5008.3325
33.2800 4758.3325
33.3000 5458.3325
33.3200 5183.3325
33.3400 5475.0000
33.3600 5533.3325
33.3800 5091.6675
33.4000 5758.3325
33.4200 5191.6675
33.4400 5525.0000
33.4600 5591.6675
33.4800 5316.6675
33.5000 5258.3325
33.5200 4958.3325
33.5400 5658.3325
33.5600 5391.6675
33.5800 5266.6675
33.6000 5566.6675
33.6200 5541.6675
33.6400 5416.6675
33.6600 5325.0000
33.6800 5183.3325
33.7000 5541.6675
33.7200 5391.6675
33.7400 5516.6675
33.7600 5391.6675
33.7800 5266.6675
33.8000 5633.3325
33.8200 5416.6675
33.8400 5416.6675
33.8600 5516.6675
33.8800 5400.0000
33.9000 5616.6675
33.9200 5658.3325
33.9400 5866.6675
33.9600 5566.6675
33.9800 5775.0000
34.0000 5991.6675
34.0200 6391.6675
34.0400 5983.3325
34.0600 6258.3325
34.0800 6266.6675
34.1000 6533.3325
34.1200 6466.6675
34.1400 6783.3325
34.1600 6575.0000
34.1800 7058.3325
34.2000 7016.6675
34.2200 7058.3325
34.2400 7591.6675
34.2600 8083.3325
34.2800 8358.3325
34.3000 8583.3325
34.3200 8983.3325
34.3400 10375.0000
34.3600 12791.6675
34.3800 14658.3325
34.4000 17575.0000
34.4200 21458.3325
34.4400 27866.6675
34.4600 38525.0000
34.4800 52858.3325
34.5000 66750.0000
34.5200 72583.3325
34.5400 66225.0000
34.5600 60608.3325
34.5800 61791.6675
34.6000 61458.3325
34.6200 55366.6675
34.6400 45891.6675
34.6600 34275.0000
34.6800 26775.0000
34.7000 22816.6675
34.7200 19775.0000
34.7400 15350.0000
34.7600 12550.0000
34.7800 10791.6675
34.8000 9316.6675
34.8200 8775.0000
34.8400 7958.3325
34.8600 7825.0000
34.8800 7850.0000
34.9000 6750.0000
34.9200 7083.3325
34.9400 7091.6675
34.9600 6741.6675
34.9800 6091.6675
35.0000 6300.0000
35.0200 5991.6675
35.0400 5541.6675
35.0600 5775.0000
35.0800 5508.3325
35.1000 5450.0000
35.1200 5466.6675
35.1400 5583.3325
35.1600 5433.3325
35.1800 5600.0000
35.2000 5241.6675
35.2200 5008.3325
35.2400 5183.3325
35.2600 5275.0000
35.2800 5316.6675
35.3000 5091.6675
35.3200 5150.0000
35.3400 5325.0000
35.3600 5166.6675
35.3800 5058.3325
35.4000 5175.0000
35.4200 4958.3325
35.4400 5250.0000
35.4600 4758.3325
35.4800 5141.6675
35.5000 4875.0000
35.5200 4925.0000
35.5400 4975.0000
35.5600 5108.3325
35.5800 4858.3325
35.6000 4750.0000
35.6200 5191.6675
35.6400 4991.6675
35.6600 4600.0000
35.6800 4808.3325
35.7000 4675.0000
35.7200 4525.0000
35.7400 4800.0000
35.7600 4650.0000
35.7800 4450.0000
35.8000 4425.0000
35.8200 4691.6675
35.8400 4708.3325
35.8600 5058.3325
35.8800 4616.6675
35.9000 4675.0000
35.9200 5033.3325
35.9400 4783.3325
35.9600 4875.0000
35.9800 4925.0000
36.0000 4733.3325
36.0200 4600.0000
36.0400 4550.0000
36.0600 4700.0000
36.0800 4591.6675
36.1000 4608.3325
36.1200 4550.0000
36.1400 4366.6675
36.1600 4341.6675
36.1800 4708.3325
36.2000 4491.6675
36.2200 4466.6675
36.2400 4700.0000
36.2600 4791.6675
36.2800 4591.6675
36.3000 4441.6675
36.3200 4800.0000
36.3400 4766.6675
36.3600 4391.6675
36.3800 4533.3325
36.4000 4708.3325
36.4200 4500.0000
36.4400 4208.3325
36.4600 4566.6675
36.4800 4683.3325
36.5000 4741.6675
36.5200 4508.3325
36.5400 4616.6675
36.5600 4483.3325
36.5800 4416.6675
36.6000 4375.0000
36.6200 4683.3325
36.6400 5091.6675
36.6600 4691.6675
36.6800 5008.3325
36.7000 4725.0000
36.7200 4608.3325
36.7400 4816.6675
36.7600 4658.3325
36.7800 4491.6675
36.8000 4483.3325
36.8200 4600.0000
36.8400 4375.0000
36.8600 4666.6675
36.8800 4508.3325
36.9000 4725.0000
36.9200 4216.6675
36.9400 4825.0000
36.9600 4500.0000
36.9800 4500.0000
37.0000 4366.6675
37.0200 4541.6675
37.0400 4483.3325
37.0600 4408.3325
37.0800 4383.3325
37.1000 4341.6675
37.1200 4633.3325
37.1400 4508.3325
37.1600 4583.3325
37.1800 4725.0000
37.2000 4675.0000
37.2200 4316.6675
37.2400 4300.0000
37.2600 4358.3325
37.2800 4566.6675
37.3000 4375.0000
37.3200 4175.0000
37.3400 4391.6675
37.3600 4608.3325
37.3800 4566.6675
37.4000 4433.3325
37.4200 4591.6675
37.4400 4241.6675
37.4600 4575.0000
37.4800 4500.0000
37.5000 4958.3325
37.5200 4491.6675
37.5400 4333.3325
37.5600 4450.0000
37.5800 4416.6675
37.6000 4558.3325
37.6200 4450.0000
37.6400 4408.3325
37.6600 5083.3325
37.6800 5025.0000
37.7000 5258.3325
37.7200 5466.6675
37.7400 5683.3325
37.7600 5741.6675
37.7800 5458.3325
37.8000 5183.3325
37.8200 5425.0000
37.8400 5541.6675
37.8600 5166.6675
37.8800 4825.0000
37.9000 4658.3325
37.9200 4925.0000
37.9400 4466.6675
37.9600 4575.0000
37.9800 4433.3325
38.0000 4208.3325
38.0200 4300.0000
38.0400 4416.6675
38.0600 4250.0000
38.0800 4366.6675
38.1000 4500.0000
38.1200 4858.3325
38.1400 4558.3325
38.1600 4575.0000
38.1800 4666.6675
38.2000 4358.3325
38.2200 4366.6675
38.2400 4266.6675
38.2600 4366.6675
38.2800 4450.0000
38.3000 4466.6675
38.3200 4325.0000
38.3400 4616.6675
38.3600 4325.0000
38.3800 4358.3325
38.4000 4108.3325
38.4200 4266.6675
38.4400 4275.0000
38.4600 4475.0000
38.4800 4458.3325
38.5000 4366.6675
38.5200 4291.6675
38.5400 4525.0000
38.5600 4200.0000
38.5800 4041.6675
38.6000 4225.0000
38.6200 4266.6675
38.6400 4600.0000
38.6600 4358.3325
38.6800 4583.3325
38.7000 4491.6675
38.7200 4008.3325
38.7400 4241.6675
38.7600 4350.0000
38.7800 4200.0000
38.8000 4208.3325
38.8200 4133.3325
38.8400 4133.3325
38.8600 4300.0000
38.8800 4333.3325
38.9000 4425.0000
38.9200 4200.0000
38.9400 4333.3325
38.9600 4375.0000
38.9800 4391.6675
39.0000 4150.0000
39.0200 4133.3325
39.0400 4733.3325
39.0600 4408.3325
39.0800 4341.6675
39.1000 4291.6675
39.1200 4341.6675
39.1400 4133.3325
39.1600 3991.6675
39.1800 4141.6675
39.2000 4033.3325
39.2200 4350.0000
39.2400 4550.0000
39.2600 4441.6675
39.2800 4441.6675
39.3000 4366.6675
39.3200 4408.3325
39.3400 4291.6675
39.3600 4525.0000
39.3800 4366.6675
39.4000 4300.0000
39.4200 4283.3325
39.4400 4308.3325
39.4600 4533.3325
39.4800 4458.3325
39.5000 4491.6675
39.5200 4366.6675
39.5400 4525.0000
39.5600 4208.3325
39.5800 4591.6675
39.6000 4625.0000
39.6200 4475.0000
39.6400 4241.6675
39.6600 4341.6675
39.6800 4608.3325
39.7000 4400.0000
39.7200 4500.0000
39.7400 4175.0000
39.7600 4433.3325
39.7800 4258.3325
39.8000 4275.0000
39.8200 4208.3325
39.8400 4558.3325
39.8600 4291.6675
39.8800 4125.0000
39.9000 4183.3325
39.9200 4275.0000
39.9400 4375.0000
39.9600 4275.0000
39.9800 4400.0000
40.0000 4300.0000
40.0200 4216.6675
40.0400 4166.6675
40.0600 4191.6675
40.0800 4358.3325
40.1000 4566.6675
40.1200 4433.3325
40.1400 4233.3325
40.1600 4041.6675
40.1800 4091.6675
40.2000 3925.0000
40.2200 4125.0000
40.2400 4325.0000
40.2600 4083.3325
40.2800 4425.0000
40.3000 4216.6675
40.3200 4325.0000
40.3400 4191.6675
40.3600 4058.3325
40.3800 4366.6675
40.4000 4200.0000
40.4200 3816.6675
40.4400 4233.3325
40.4600 4225.0000
40.4800 4116.6675
40.5000 4458.3325
40.5200 4333.3325
40.5400 4316.6675
40.5600 4041.6675
40.5800 4200.0000
40.6000 4533.3325
40.6200 4250.0000
40.6400 4416.6675
40.6600 4433.3325
40.6800 4291.6675
40.7000 4425.0000
40.7200 4350.0000
40.7400 4250.0000
40.7600 4216.6675
40.7800 4008.3325
40.8000 4158.3325
40.8200 4658.3325
40.8400 4341.6675
40.8600 4033.3325
40.8800 4150.0000
40.9000 4050.0000
40.9200 4308.3325
40.9400 4108.3325
40.9600 3908.3325
40.9800 4300.0000
41.0000 4250.0000
41.0200 4550.0000
41.0400 4191.6675
41.0600 4491.6675
41.0800 4325.0000
41.1000 4233.3325
41.1200 4366.6675
41.1400 4216.6675
41.1600 4100.0000
41.1800 4275.0000
41.2000 4541.6675
41.2200 4450.0000
41.2400 4341.6675
41.2600 4408.3325
41.2800 4625.0000
41.3000 4258.3325
41.3200 4058.3325
41.3400 4383.3325
41.3600 4416.6675
41.3800 4600.0000
41.4000 4316.6675
41.4200 4183.3325
41.4400 4216.6675
41.4600 3975.0000
41.4800 4308.3325
41.5000 4266.6675
41.5200 4391.6675
41.5400 4516.6675
41.5600 4166.6675
41.5800 4291.6675
41.6000 4191.6675
41.6200 4566.6675
41.6400 4183.3325
41.6600 4233.3325
41.6800 4491.6675
41.7000 4425.0000
41.7200 4466.6675
41.7400 4300.0000
41.7600 4025.0000
41.7800 4308.3325
41.8000 4408.3325
41.8200 4075.0000
41.8400 4016.6675
41.8600 4158.3325
41.8800 4225.0000
41.9000 4175.0000
41.9200 4291.6675
41.9400 4375.0000
41.9600 4416.6675
41.9800 4058.3325
42.0000 4183.3325
42.0200 4316.6675
42.0400 4266.6675
42.0600 4508.3325
42.0800 4358.3325
42.1000 4408.3325
42.1200 4333.3325
42.1400 4350.0000
42.1600 4316.6675
42.1800 4250.0000
42.2000 4425.0000
42.2200 4258.3325
42.2400 4216.6675
42.2600 4208.3325
42.2800 4600.0000
42.3000 4583.3325
42.3200 4533.3325
42.3400 4333.3325
42.3600 4741.6675
42.3800 4408.3325
42.4000 4391.6675
42.4200 4616.6675
42.4400 4458.3325
42.4600 4725.0000
42.4800 4491.6675
42.5000 4783.3325
42.5200 4758.3325
42.5400 4850.0000
42.5600 5358.3325
42.5800 5925.0000
42.6000 6458.3325
42.6200 7575.0000
42.6400 8616.6675
42.6600 8075.0000
42.6800 7991.6675
42.7000 8308.3325
42.7200 7608.3325
42.7400 7683.3325
42.7600 7775.0000
42.7800 7075.0000
42.8000 6375.0000
42.8200 5983.3325
42.8400 5450.0000
42.8600 5450.0000
42.8800 5283.3325
42.9000 4708.3325
42.9200 4550.0000
42.9400 4241.6675
42.9600 4391.6675
42.9800 4500.0000
43.0000 4450.0000
43.0200 4383.3325
43.0400 4466.6675
43.0600 4175.0000
43.0800 4166.6675
43.1000 4008.3325
43.1200 4358.3325
43.1400 4416.6675
43.1600 4241.6675
43.1800 4525.0000
43.2000 4100.0000
43.2200 4425.0000
43.2400 4158.3325
43.2600 4175.0000
43.2800 4025.0000
43.3000 4141.6675
43.3200 4233.3325
43.3400 4041.6675
43.3600 4383.3325
43.3800 4450.0000
43.4000 4425.0000
43.4200 4625.0000
43.4400 4325.0000
43.4600 3950.0000
43.4800 4391.6675
43.5000 4708.3325
43.5200 4616.6675
43.5400 4708.3325
43.5600 4075.0000
43.5800 4375.0000
43.6000 4366.6675
43.6200 4308.3325
43.6400 4691.6675
43.6600 4283.3325
43.6800 4608.3325
43.7000 4308.3325
43.7200 4400.0000
43.7400 4450.0000
43.7600 4525.0000
43.7800 4183.3325
43.8000 4391.6675
43.8200 4033.3325
43.8400 4141.6675
43.8600 4525.0000
43.8800 4450.0000
43.9000 4408.3325
43.9200 4333.3325
43.9400 4558.3325
43.9600 4216.6675
43.9800 4241.6675
44.0000 4425.0000
44.0200 4550.0000
44.0400 4658.3325
44.0600 4375.0000
44.0800 4233.3325
44.1000 4658.3325
44.1200 4583.3325
44.1400 4533.3325
44.1600 4525.0000
44.1800 4525.0000
44.2000 4633.3325
44.2200 4608.3325
44.2400 4791.6675
44.2600 4533.3325
44.2800 4541.6675
44.3000 4733.3325
44.3200 4833.3325
44.3400 4841.6675
44.3600 4833.3325
44.3800 5341.6675
44.4000 5258.3325
44.4200 5258.3325
44.4400 5325.0000
44.4600 5066.6675
44.4800 5166.6675
44.5000 5383.3325
44.5200 5333.3325
44.5400 5500.0000
44.5600 5633.3325
44.5800 5841.6675
44.6000 5758.3325
44.6200 5641.6675
44.6400 5541.6675
44.6600 5791.6675
44.6800 5691.6675
44.7000 5483.3325
44.7200 5208.3325
44.7400 5350.0000
44.7600 5250.0000
44.7800 5191.6675
44.8000 4833.3325
44.8200 4916.6675
44.8400 4966.6675
44.8600 5008.3325
44.8800 5250.0000
44.9000 5258.3325
44.9200 4925.0000
44.9400 4950.0000
44.9600 5108.3325
44.9800 5041.6675
45.0000 5175.0000
45.0200 5258.3325
45.0400 5233.3325
45.0600 4883.3325
45.0800 5183.3325
45.1000 5608.3325
45.1200 5433.3325
45.1400 5308.3325
45.1600 5616.6675
45.1800 6191.6675
45.2000 6625.0000
45.2200 6791.6675
45.2400 6766.6675
45.2600 7558.3325
45.2800 8516.6675
45.3000 9583.3325
45.3200 12733.3325
45.3400 17300.0000
45.3600 23858.3325
45.3800 27516.6675
45.4000 27325.0000
45.4200 24450.0000
45.4400 21958.3325
45.4600 21983.3325
45.4800 23258.3325
45.5000 23333.3325
45.5200 21466.6675
45.5400 16983.3325
45.5600 14008.3325
45.5800 11966.6675
45.6000 10516.6675
45.6200 9900.0000
45.6400 8575.0000
45.6600 7108.3325
45.6800 6441.6675
45.7000 6025.0000
45.7200 5875.0000
45.7400 5641.6675
45.7600 5375.0000
45.7800 5316.6675
45.8000 5433.3325
45.8200 5016.6675
45.8400 4891.6675
45.8600 4900.0000
45.8800 4791.6675
45.9000 4658.3325
45.9200 4758.3325
45.9400 4641.6675
45.9600 4716.6675
45.9800 4416.6675
46.0000 4408.3325
46.0200 4475.0000
46.0400 4216.6675
46.0600 4933.3325
46.0800 4758.3325
46.1000 4416.6675
46.1200 4341.6675
46.1400 4325.0000
46.1600 4508.3325
46.1800 4458.3325
46.2000 4408.3325
46.2200 4433.3325
46.2400 4350.0000
46.2600 4241.6675
46.2800 4600.0000
46.3000 4458.3325
46.3200 4258.3325
46.3400 4158.3325
46.3600 4533.3325
46.3800 4391.6675
46.4000 4183.3325
46.4200 4458.3325
46.4400 4358.3325
46.4600 4483.3325
46.4800 4383.3325
46.5000 4533.3325
46.5200 4358.3325
46.5400 4525.0000
46.5600 4366.6675
46.5800 4441.6675
46.6000 4191.6675
46.6200 4158.3325
46.6400 4266.6675
46.6600 4541.6675
46.6800 4133.3325
46.7000 4108.3325
46.7200 4516.6675
46.7400 4233.3325
46.7600 4275.0000
46.7800 4600.0000
46.8000 4508.3325
46.8200 4350.0000
46.8400 4366.6675
46.8600 4241.6675
46.8800 4266.6675
46.9000 4491.6675
46.9200 4483.3325
46.9400 4391.6675
46.9600 4416.6675
46.9800 3966.6675
47.0000 4141.6675
47.0200 4358.3325
47.0400 4241.6675
47.0600 4083.3325
47.0800 4208.3325
47.1000 4375.0000
47.1200 4350.0000
47.1400 4191.6675
47.1600 4591.6675
47.1800 4708.3325
47.2000 4458.3325
47.2200 4483.3325
47.2400 4466.6675
47.2600 4900.0000
47.2800 4408.3325
47.3000 4466.6675
47.3200 4508.3325
47.3400 4658.3325
47.3600 4683.3325
47.3800 4333.3325
47.4000 4516.6675
47.4200 4650.0000
47.4400 4566.6675
47.4600 4741.6675
47.4800 4666.6675
47.5000 4600.0000
47.5200 4225.0000
47.5400 4391.6675
47.5600 4183.3325
47.5800 4600.0000
47.6000 4691.6675
47.6200 4300.0000
47.6400 4266.6675
47.6600 4675.0000
47.6800 4425.0000
47.7000 4633.3325
47.7200 4458.3325
47.7400 4466.6675
47.7600 4366.6675
47.7800 4516.6675
47.8000 4241.6675
47.8200 4258.3325
47.8400 4225.0000
47.8600 4541.6675
47.8800 4416.6675
47.9000 4258.3325
47.9200 4583.3325
47.9400 4258.3325
47.9600 4800.0000
47.9800 4458.3325
48.0000 4216.6675
48.0200 4491.6675
48.0400 4258.3325
48.0600 4550.0000
48.0800 4441.6675
48.1000 4375.0000
48.1200 4600.0000
48.1400 4525.0000
48.1600 4133.3325
48.1800 4616.6675
48.2000 4833.3325
48.2200 4608.3325
48.2400 4775.0000
48.2600 4933.3325
48.2800 4650.0000
48.3000 4791.6675
48.3200 4633.3325
48.3400 4608.3325
48.3600 4625.0000
48.3800 4408.3325
48.4000 4683.3325
48.4200 4341.6675
48.4400 4683.3325
48.4600 4666.6675
48.4800 4625.0000
48.5000 4775.0000
48.5200 4533.3325
48.5400 4825.0000
48.5600 4591.6675
48.5800 4641.6675
48.6000 5025.0000
48.6200 4616.6675
48.6400 4975.0000
48.6600 4975.0000
48.6800 4675.0000
48.7000 4566.6675
48.7200 4516.6675
48.7400 4850.0000
48.7600 4641.6675
48.7800 4616.6675
48.8000 5133.3325
48.8200 5175.0000
48.8400 4616.6675
48.8600 5100.0000
48.8800 4983.3325
48.9000 4858.3325
48.9200 5025.0000
48.9400 5083.3325
48.9600 5208.3325
48.9800 5183.3325
49.0000 5441.6675
49.0200 5316.6675
49.0400 5266.6675
49.0600 5191.6675
49.0800 5208.3325
49.1000 5241.6675
49.1200 5175.0000
49.1400 5941.6675
49.1600 6241.6675
49.1800 5900.0000
49.2000 6150.0000
49.2200 5875.0000
49.2400 6425.0000
49.2600 6541.6675
49.2800 6816.6675
49.3000 6800.0000
49.3200 7275.0000
49.3400 7325.0000
49.3600 7541.6675
49.3800 7858.3325
49.4000 8466.6675
49.4200 8775.0000
49.4400 9450.0000
49.4600 9791.6675
49.4800 10608.3325
49.5000 11033.3325
49.5200 12041.6675
49.5400 13250.0000
49.5600 15400.0000
49.5800 19033.3325
49.6000 23625.0000
49.6200 32125.0000
49.6400 45691.6675
49.6600 63383.3325
49.6800 80366.6675
49.7000 85141.6675
49.7200 76483.3325
49.7400 66641.6675
49.7600 62466.6675
49.7800 63400.0000
49.8000 64208.3325
49.8200 63050.0000
49.8400 55058.3325
49.8600 44466.6675
49.8800 36183.3325
49.9000 30766.6675
49.9200 26025.0000
49.9400 22183.3325
49.9600 18091.6675
49.9800 14491.6675
50.0000 12450.0000
50.0200 10500.0000
50.0400 9733.3325
50.0600 9041.6675
50.0800 8566.6675
50.1000 8291.6675
50.1200 7750.0000
50.1400 7600.0000
50.1600 6766.6675
50.1800 6450.0000
50.2000 6925.0000
50.2200 6291.6675
50.2400 6133.3325
50.2600 6100.0000
50.2800 5966.6675
50.3000 5900.0000
50.3200 5375.0000
50.3400 5150.0000
50.3600 5091.6675
50.3800 5308.3325
50.4000 5708.3325
50.4200 5225.0000
50.4400 4983.3325
50.4600 5141.6675
50.4800 5266.6675
50.5000 5041.6675
50.5200 5183.3325
50.5400 5041.6675
50.5600 4858.3325
50.5800 4966.6675
50.6000 4916.6675
50.6200 4958.3325
50.6400 5116.6675
50.6600 4691.6675
50.6800 4466.6675
50.7000 4900.0000
50.7200 4483.3325
50.7400 4450.0000
50.7600 4650.0000
50.7800 4908.3325
50.8000 4683.3325
50.8200 4833.3325
50.8400 4566.6675
50.8600 4741.6675
50.8800 4416.6675
50.9000 4583.3325
50.9200 4650.0000
50.9400 4458.3325
50.9600 4783.3325
50.9800 4958.3325
51.0000 4583.3325
51.0200 4625.0000
51.0400 4550.0000
51.0600 4441.6675
51.0800 4141.6675
51.1000 4358.3325
51.1200 4633.3325
51.1400 4433.3325
51.1600 4316.6675
51.1800 4675.0000
51.2000 4450.0000
51.2200 4466.6675
51.2400 4675.0000
51.2600 4391.6675
51.2800 4391.6675
51.3000 4408.3325
51.3200 4750.0000
51.3400 4608.3325
51.3600 4341.6675
51.3800 4391.6675
51.4000 4083.3325
51.4200 4050.0000
51.4400 4425.0000
51.4600 4475.0000
51.4800 4675.0000
51.5000 4483.3325
51.5200 4391.6675
51.5400 4525.0000
51.5600 4916.6675
51.5800 4625.0000
51.6000 4600.0000
51.6200 4316.6675
51.6400 4250.0000
51.6600 4225.0000
51.6800 4350.0000
51.7000 4291.6675
51.7200 4483.3325
51.7400 4275.0000
51.7600 4166.6675
51.7800 4475.0000
51.8000 4433.3325
51.8200 4416.6675
51.8400 4308.3325
51.8600 4458.3325
51.8800 4391.6675
51.9000 4766.6675
51.9200 4225.0000
51.9400 4408.3325
51.9600 4458.3325
51.9800 4416.6675
52.0000 4450.0000
52.0200 4216.6675
52.0400 4616.6675
52.0600 4758.3325
52.0800 5108.3325
52.1000 5350.0000
52.1200 5350.0000
52.1400 5650.0000
52.1600 5850.0000
52.1800 5600.0000
52.2000 5575.0000
52.2200 5041.6675
52.2400 5541.6675
52.2600 5375.0000
52.2800 5208.3325
52.3000 4933.3325
52.3200 4808.3325
52.3400 5241.6675
52.3600 4750.0000
52.3800 4541.6675
52.4000 4458.3325
52.4200 4633.3325
52.4400 4275.0000
52.4600 4350.0000
52.4800 4458.3325
52.5000 4258.3325
52.5200 4058.3325
52.5400 4508.3325
52.5600 4483.3325
52.5800 4591.6675
52.6000 4358.3325
52.6200 4458.3325
52.6400 4425.0000
52.6600 4391.6675
52.6800 4158.3325
52.7000 4316.6675
52.7200 4250.0000
52.7400 4358.3325
52.7600 4441.6675
52.7800 4341.6675
52.8000 4541.6675
52.8200 4591.6675
52.8400 4383.3325
52.8600 4375.0000
52.8800 4416.6675
52.9000 4375.0000
52.9200 4483.3325
52.9400 4391.6675
52.9600 4483.3325
52.9800 4350.0000
53.0000 4341.6675
53.0200 4675.0000
53.0400 4883.3325
53.0600 4241.6675
53.0800 4208.3325
53.1000 4483.3325
53.1200 4466.6675
53.1400 4308.3325
53.1600 4391.6675
53.1800 3916.6675
53.2000 4183.3325
53.2200 4458.3325
53.2400 4666.6675
53.2600 4108.3325
53.2800 4025.0000
53.3000 3941.6675
53.3200 4258.3325
53.3400 4408.3325
53.3600 4275.0000
53.3800 4383.3325
53.4000 4425.0000
53.4200 4400.0000
53.4400 4275.0000
53.4600 4108.3325
53.4800 3966.6675
53.5000 3933.3325
53.5200 4450.0000
53.5400 4291.6675
53.5600 4333.3325
53.5800 4208.3325
53.6000 4191.6675
53.6200 4233.3325
53.6400 4250.0000
53.6600 4225.0000
53.6800 4000.0000
53.7000 3941.6675
53.7200 4291.6675
53.7400 4083.3325
53.7600 3850.0000
53.7800 4375.0000
53.8000 4191.6675
53.8200 4141.6675
53.8400 3891.6675
53.8600 4325.0000
53.8800 4133.3325
53.9000 4416.6675
53.9200 4241.6675
53.9400 4066.6675
53.9600 4008.3325
53.9800 4050.0000
54.0000 4250.0000
54.0200 4183.3325
54.0400 4075.0000
54.0600 4150.0000
54.0800 4325.0000
54.1000 4283.3325
54.1200 4075.0000
54.1400 3916.6675
54.1600 3741.6675
54.1800 3875.0000
54.2000 4033.3325
54.2200 3891.6675
54.2400 4008.3325
54.2600 4141.6675
54.2800 3916.6675
54.3000 4333.3325
54.3200 4025.0000
54.3400 4250.0000
54.3600 3958.3325
54.3800 4208.3325
54.4000 4025.0000
54.4200 4058.3325
54.4400 4308.3325
54.4600 4025.0000
54.4800 3683.3325
54.5000 4458.3325
54.5200 4283.3325
54.5400 4158.3325
54.5600 4091.6675
54.5800 4125.0000
54.6000 4458.3325
54.6200 3950.0000
54.6400 3758.3325
54.6600 4050.0000
54.6800 4125.0000
54.7000 4250.0000
54.7200 4125.0000
54.7400 4141.6675
54.7600 4166.6675
54.7800 4175.0000
54.8000 4058.3325
54.8200 4466.6675
54.8400 4083.3325
54.8600 4358.3325
54.8800 4116.6675
54.9000 4116.6675
54.9200 4408.3325
54.9400 4233.3325
54.9600 4400.0000
54.9800 3983.3325
55.0000 4050.0000
55.0200 3858.3325
55.0400 3875.0000
55.0600 4258.3325
55.0800 4116.6675
55.1000 4191.6675
55.1200 4025.0000
55.1400 4191.6675
55.1600 4175.0000
55.1800 4016.6675
55.2000 4091.6675
55.2200 3816.6675
55.2400 4291.6675
55.2600 4258.3325
55.2800 4158.3325
55.3000 4025.0000
55.3200 3933.3325
55.3400 4083.3325
55.3600 4200.0000
55.3800 4225.0000
55.4000 3925.0000
55.4200 4133.3325
55.4400 4175.0000
55.4600 4208.3325
55.4800 4141.6675
55.5000 4025.0000
55.5200 4366.6675
55.5400 4358.3325
55.5600 4000.0000
55.5800 4075.0000
55.6000 4108.3325
55.6200 4441.6675
55.6400 4200.0000
55.6600 4383.3325
55.6800 4283.3325
55.7000 4191.6675
55.7200 4500.0000
55.7400 4050.0000
55.7600 4258.3325
55.7800 4375.0000
55.8000 4216.6675
55.8200 4233.3325
55.8400 4300.0000
55.8600 4316.6675
55.8800 4258.3325
55.9000 4125.0000
55.9200 4183.3325
55.9400 4616.6675
55.9600 4641.6675
55.9800 4666.6675
56.0000 4858.3325
56.0200 4883.3325
56.0400 5183.3325
56.0600 5533.3325
56.0800 5833.3325
56.1000 5608.3325
56.1200 5058.3325
56.1400 4875.0000
56.1600 4841.6675
56.1800 4941.6675
56.2000 5100.0000
56.2200 5250.0000
56.2400 5116.6675
56.2600 4650.0000
56.2800 4600.0000
56.3000 4708.3325
56.3200 4700.0000
56.3400 4400.0000
56.3600 4275.0000
56.3800 4358.3325
56.4000 4666.6675
56.4200 4608.3325
56.4400 4358.3325
56.4600 4433.3325
56.4800 4383.3325
56.5000 4341.6675
56.5200 4125.0000
56.5400 3500.0000
56.5600 3850.0000
56.5800 3900.0000
56.6000 4150.0000
56.6200 4341.6675
56.6400 4191.6675
56.6600 4066.6675
56.6800 4233.3325
56.7000 4083.3325
56.7200 4283.3325
56.7400 4283.3325
56.7600 4400.0000
56.7800 4116.6675
56.8000 3683.3325
56.8200 4216.6675
56.8400 3858.3325
56.8600 4158.3325
56.8800 4241.6675
56.9000 4108.3325
56.9200 4183.3325
56.9400 4183.3325
56.9600 4133.3325
56.9800 4083.3325
57.0000 4250.0000
57.0200 4258.3325
57.0400 4241.6675
57.0600 4141.6675
57.0800 4141.6675
57.1000 3958.3325
57.1200 4266.6675
57.1400 3908.3325
57.1600 4241.6675
57.1800 4108.3325
57.2000 4283.3325
57.2200 4441.6675
57.2400 4008.3325
57.2600 4183.3325
57.2800 3966.6675
57.3000 3941.6675
57.3200 4183.3325
57.3400 4225.0000
57.3600 4066.6675
57.3800 3616.6675
57.4000 3916.6675
57.4200 4266.6675
57.4400 4441.6675
57.4600 4408.3325
57.4800 4483.3325
57.5000 3941.6675
57.5200 4375.0000
57.5400 4125.0000
57.5600 4341.6675
57.5800 4433.3325
57.6000 4233.3325
57.6200 4191.6675
57.6400 4258.3325
57.6600 4266.6675
57.6800 4000.0000
57.7000 4133.3325
57.7200 4266.6675
57.7400 4033.3325
57.7600 4300.0000
57.7800 4400.0000
57.8000 4216.6675
57.8200 4258.3325
57.8400 4091.6675
57.8600 4391.6675
57.8800 4058.3325
57.9000 4275.0000
57.9200 4300.0000
57.9400 4300.0000
57.9600 4375.0000
57.9800 4066.6675
58.0000 4508.3325
58.0200 4200.0000
58.0400 4283.3325
58.0600 4541.6675
58.0800 4191.6675
58.1000 4750.0000
58.1200 4491.6675
58.1400 4600.0000
58.1600 4783.3325
58.1800 4783.3325
58.2000 4500.0000
58.2200 4841.6675
58.2400 5150.0000
58.2600 5583.3325
58.2800 6475.0000
58.3000 7241.6675
58.3200 7591.6675
58.3400 7533.3325
58.3600 7233.3325
58.3800 6766.6675
58.4000 6658.3325
58.4200 6450.0000
58.4400 6316.6675
58.4600 6375.0000
58.4800 6975.0000
58.5000 6658.3325
58.5200 6100.0000
58.5400 5891.6675
58.5600 5616.6675
58.5800 5566.6675
58.6000 5208.3325
58.6200 5108.3325
58.6400 5016.6675
58.6600 5033.3325
58.6800 4816.6675
58.7000 4866.6675
58.7200 5316.6675
58.7400 4983.3325
58.7600 5125.0000
58.7800 5016.6675
58.8000 5158.3325
58.8200 5408.3325
58.8400 5308.3325
58.8600 5575.0000
58.8800 5791.6675
58.9000 6100.0000
58.9200 6275.0000
58.9400 6883.3325
58.9600 7325.0000
58.9800 7916.6675
59.0000 10400.0000
59.0200 12683.3325
59.0400 16325.0000
59.0600 20016.6675
59.0800 20700.0000
59.1000 19116.6675
59.1200 16666.6675
59.1400 15341.6675
59.1600 13900.0000
59.1800 13516.6675
59.2000 14391.6675
59.2200 14091.6675
59.2400 13516.6675
59.2600 12066.6675
59.2800 11183.3325
59.3000 9891.6675
59.3200 8950.0000
59.3400 8416.6675
59.3600 7008.3325
59.3800 6125.0000
59.4000 6000.0000
59.4200 5466.6675
59.4400 5316.6675
59.4600 5308.3325
59.4800 5383.3325
59.5000 5091.6675
59.5200 4750.0000
59.5400 4825.0000
59.5600 4533.3325
59.5800 5066.6675
59.6000 4991.6675
59.6200 4416.6675
59.6400 4733.3325
59.6600 4616.6675
59.6800 4658.3325
59.7000 4466.6675
59.7200 4450.0000
59.7400 4483.3325
59.7600 4583.3325
59.7800 4391.6675
59.8000 4350.0000
59.8200 4300.0000
59.8400 4050.0000
59.8600 4050.0000
59.8800 4391.6675
59.9000 4000.0000
59.9200 4175.0000
59.9400 4091.6675
59.9600 4025.0000
59.9800 4175.0000
60.0000 4350.0000
60.0200 4208.3325
60.0400 4283.3325
60.0600 4383.3325
60.0800 4150.0000
60.1000 4133.3325
60.1200 4425.0000
60.1400 4333.3325
60.1600 4300.0000
60.1800 3916.6675
60.2000 4150.0000
60.2200 3833.3325
60.2400 4058.3325
60.2600 4191.6675
60.2800 4525.0000
60.3000 4100.0000
60.3200 4150.0000
60.3400 4150.0000
60.3600 4300.0000
60.3800 4041.6675
60.4000 4100.0000
60.4200 4366.6675
60.4400 4150.0000
60.4600 3900.0000
60.4800 4116.6675
60.5000 3833.3325
60.5200 4350.0000
60.5400 3766.6675
60.5600 4025.0000
60.5800 3958.3325
60.6000 4058.3325
60.6200 3958.3325
60.6400 4158.3325
60.6600 4291.6675
60.6800 4241.6675
60.7000 4266.6675
60.7200 4266.6675
60.7400 4425.0000
60.7600 4358.3325
60.7800 4350.0000
60.8000 3783.3325
60.8200 4191.6675
60.8400 4291.6675
60.8600 4066.6675
60.8800 4275.0000
60.9000 4216.6675
60.9200 4125.0000
60.9400 4183.3325
60.9600 4325.0000
60.9800 4183.3325
61.0000 4241.6675
61.0200 4341.6675
61.0400 4441.6675
61.0600 4283.3325
61.0800 4058.3325
61.1000 4033.3325
61.1200 4083.3325
61.1400 3875.0000
61.1600 4466.6675
61.1800 4116.6675
61.2000 4308.3325
61.2200 4450.0000
61.2400 4208.3325
61.2600 4216.6675
61.2800 4258.3325
61.3000 4400.0000
61.3200 4241.6675
61.3400 4300.0000
61.3600 4250.0000
61.3800 4408.3325
61.4000 4350.0000
61.4200 4433.3325
61.4400 4375.0000
61.4600 4175.0000
61.4800 4133.3325
61.5000 4283.3325
61.5200 4658.3325
61.5400 4525.0000
61.5600 4500.0000
61.5800 4633.3325
61.6000 4633.3325
61.6200 4691.6675
61.6400 4700.0000
61.6600 4791.6675
61.6800 4925.0000
61.7000 5116.6675
61.7200 5175.0000
61.7400 4958.3325
61.7600 5225.0000
61.7800 5366.6675
61.8000 5591.6675
61.8200 5358.3325
61.8400 5641.6675
61.8600 6225.0000
61.8800 6733.3325
61.9000 7266.6675
61.9200 8816.6675
61.9400 11100.0000
61.9600 14658.3325
61.9800 17516.6675
62.0000 17633.3325
62.0200 16233.3325
62.0400 13616.6675
62.0600 12291.6675
62.0800 12158.3325
62.1000 11691.6675
62.1200 11908.3325
62.1400 11433.3325
62.1600 11991.6675
62.1800 11283.3325
62.2000 10066.6675
62.2200 8891.6675
62.2400 8150.0000
62.2600 7400.0000
62.2800 7075.0000
62.3000 6275.0000
62.3200 5650.0000
62.3400 5516.6675
62.3600 5091.6675
62.3800 5058.3325
62.4000 4816.6675
62.4200 4650.0000
62.4400 4508.3325
62.4600 4783.3325
62.4800 4791.6675
62.5000 4583.3325
62.5200 4491.6675
62.5400 4591.6675
62.5600 4491.6675
62.5800 4225.0000
62.6000 4125.0000
62.6200 4383.3325
62.6400 4675.0000
62.6600 4416.6675
62.6800 4316.6675
62.7000 4125.0000
62.7200 4233.3325
62.7400 4016.6675
62.7600 4000.0000
62.7800 4266.6675
62.8000 3758.3325
62.8200 4366.6675
62.8400 4300.0000
62.8600 3991.6675
62.8800 4308.3325
62.9000 4000.0000
62.9200 4133.3325
62.9400 4025.0000
62.9600 4275.0000
62.9800 4216.6675
63.0000 4425.0000
63.0200 4091.6675
63.0400 4066.6675
63.0600 4025.0000
63.0800 4133.3325
63.1000 4266.6675
63.1200 4183.3325
63.1400 4058.3325
63.1600 4358.3325
63.1800 4258.3325
63.2000 3925.0000
63.2200 4041.6675
63.2400 4266.6675
63.2600 4100.0000
63.2800 4358.3325
63.3000 4200.0000
63.3200 4266.6675
63.3400 4316.6675
63.3600 4041.6675
63.3800 4166.6675
63.4000 4108.3325
63.4200 3975.0000
63.4400 4100.0000
63.4600 4233.3325
63.4800 4091.6675
63.5000 4258.3325
63.5200 4025.0000
63.5400 4033.3325
63.5600 3866.6675
63.5800 4133.3325
63.6000 3941.6675
63.6200 4258.3325
63.6400 4325.0000
63.6600 4208.3325
63.6800 4283.3325
63.7000 4241.6675
63.7200 4300.0000
63.7400 4466.6675
63.7600 4266.6675
63.7800 4308.3325
63.8000 4133.3325
63.8200 4233.3325
63.8400 4408.3325
63.8600 4291.6675
63.8800 4641.6675
63.9000 4275.0000
63.9200 4391.6675
63.9400 4416.6675
63.9600 4483.3325
63.9800 4366.6675
64.0000 4316.6675
64.0200 4525.0000
64.0400 4825.0000
64.0600 4966.6675
64.0800 5608.3325
64.1000 6341.6675
64.1200 6841.6675
64.1400 6441.6675
64.1600 6266.6675
64.1800 5766.6675
64.2000 5875.0000
64.2200 5783.3325
64.2400 5433.3325
64.2600 5441.6675
64.2800 5633.3325
64.3000 5425.0000
64.3200 5483.3325
64.3400 5116.6675
64.3600 5075.0000
64.3800 4566.6675
64.4000 4725.0000
64.4200 4825.0000
64.4400 4350.0000
64.4600 4450.0000
64.4800 4275.0000
64.5000 4216.6675
64.5200 4075.0000
64.5400 3975.0000
64.5600 4158.3325
64.5800 4141.6675
64.6000 4075.0000
64.6200 4083.3325
64.6400 4083.3325
64.6600 3800.0000
64.6800 4125.0000
64.7000 3933.3325
64.7200 3908.3325
64.7400 4141.6675
64.7600 4008.3325
64.7800 4000.0000
64.8000 4291.6675
64.8200 4483.3325
64.8400 4275.0000
64.8600 4075.0000
64.8800 4491.6675
64.9000 4225.0000
64.9200 4100.0000
64.9400 4108.3325
64.9600 4233.3325
64.9800 4216.6675
65.0000 3975.0000
65.0200 4033.3325
65.0400 4141.6675
65.0600 3958.3325
65.0800 4208.3325
65.1000 4100.0000
65.1200 3958.3325
65.1400 4341.6675
65.1600 4300.0000
65.1800 4125.0000
65.2000 3883.3325
65.2200 4133.3325
65.2400 3966.6675
65.2600 4258.3325
65.2800 4116.6675
65.3000 4000.0000
65.3200 4141.6675
65.3400 3850.0000
65.3600 3816.6675
65.3800 4125.0000
65.4000 4283.3325
65.4200 3716.6675
65.4400 3891.6675
65.4600 4083.3325
65.4800 4158.3325
65.5000 3908.3325
65.5200 4000.0000
65.5400 3983.3325
65.5600 4100.0000
65.5800 4200.0000
65.6000 3908.3325
65.6200 3966.6675
65.6400 4116.6675
65.6600 3991.6675
65.6800 4083.3325
65.7000 4225.0000
65.7200 4316.6675
65.7400 4000.0000
65.7600 4341.6675
65.7800 3941.6675
65.8000 4058.3325
65.8200 4058.3325
65.8400 4033.3325
65.8600 4308.3325
65.8800 4166.6675
65.9000 3966.6675
65.9200 4175.0000
65.9400 4083.3325
65.9600 3966.6675
65.9800 3958.3325
66.0000 3883.3325
66.0200 4025.0000
66.0400 4108.3325
66.0600 4150.0000
66.0800 3975.0000
66.1000 3750.0000
66.1200 3850.0000
66.1400 3966.6675
66.1600 4175.0000
66.1800 3933.3325
66.2000 3866.6675
66.2200 4016.6675
66.2400 4000.0000
66.2600 4000.0000
66.2800 4050.0000
66.3000 3883.3325
66.3200 4133.3325
66.3400 3816.6675
66.3600 3866.6675
66.3800 3816.6675
66.4000 4133.3325
66.4200 4050.0000
66.4400 4100.0000
66.4600 3950.0000
66.4800 3933.3325
66.5000 3758.3325
66.5200 4091.6675
66.5400 4150.0000
66.5600 4075.0000
66.5800 3900.0000
66.6000 3775.0000
66.6200 4000.0000
66.6400 4033.3325
66.6600 3916.6675
66.6800 3825.0000
66.7000 4091.6675
66.7200 4208.3325
66.7400 4125.0000
66.7600 3883.3325
66.7800 3825.0000
66.8000 4025.0000
66.8200 4141.6675
66.8400 3975.0000
66.8600 3958.3325
66.8800 3691.6675
66.9000 3991.6675
66.9200 4275.0000
66.9400 3708.3325
66.9600 4116.6675
66.9800 4083.3325
67.0000 4158.3325
67.0200 3716.6675
67.0400 3916.6675
67.0600 4225.0000
67.0800 4100.0000
67.1000 4133.3325
67.1200 4108.3325
67.1400 3958.3325
67.1600 4050.0000
67.1800 3775.0000
67.2000 4108.3325
67.2200 3991.6675
67.2400 4116.6675
67.2600 3950.0000
67.2800 4041.6675
67.3000 4208.3325
67.3200 4225.0000
67.3400 4100.0000
67.3600 4200.0000
67.3800 3825.0000
67.4000 3958.3325
67.4200 4191.6675
67.4400 4391.6675
67.4600 4408.3325
67.4800 4708.3325
67.5000 4541.6675
67.5200 4475.0000
67.5400 4825.0000
67.5600 4941.6675
67.5800 5700.0000
67.6000 5991.6675
67.6200 6108.3325
67.6400 5883.3325
67.6600 5483.3325
67.6800 5308.3325
67.7000 5433.3325
67.7200 5175.0000
67.7400 4841.6675
67.7600 4925.0000
67.7800 5250.0000
67.8000 5500.0000
67.8200 5300.0000
67.8400 5150.0000
67.8600 4850.0000
67.8800 4900.0000
67.9000 4775.0000
67.9200 4366.6675
67.9400 4500.0000
67.9600 4366.6675
67.9800 4325.0000
68.0000 3733.3325
68.0200 3908.3325
68.0400 4083.3325
68.0600 4125.0000
68.0800 4066.6675
68.1000 3900.0000
68.1200 3991.6675
68.1400 3908.3325
68.1600 3941.6675
68.1800 4100.0000
68.2000 4100.0000
68.2200 3975.0000
68.2400 3866.6675
68.2600 4008.3325
68.2800 3941.6675
68.3000 3883.3325
68.3200 3850.0000
68.3400 4025.0000
68.3600 4116.6675
68.3800 3983.3325
68.4000 4058.3325
68.4200 3808.3325
68.4400 3983.3325
68.4600 4125.0000
68.4800 3841.6675
68.5000 3650.0000
68.5200 3925.0000
68.5400 3908.3325
68.5600 3708.3325
68.5800 4108.3325
68.6000 3875.0000
68.6200 3858.3325
68.6400 3700.0000
68.6600 3766.6675
68.6800 4216.6675
68.7000 4091.6675
68.7200 4150.0000
68.7400 4191.6675
68.7600 4000.0000
68.7800 3883.3325
68.8000 3783.3325
68.8200 4025.0000
68.8400 4266.6675
68.8600 3975.0000
68.8800 3991.6675
68.9000 3933.3325
68.9200 3941.6675
68.9400 4083.3325
68.9600 3875.0000
68.9800 3841.6675
69.0000 4133.3325
69.0200 4158.3325
69.0400 3983.3325
69.0600 4000.0000
69.0800 4208.3325
69.1000 4041.6675
69.1200 3966.6675
69.1400 4066.6675
69.1600 4191.6675
69.1800 4116.6675
69.2000 4083.3325
69.2200 4066.6675
69.2400 4416.6675
69.2600 4066.6675
69.2800 4200.0000
69.3000 4033.3325
69.3200 4383.3325
69.3400 4116.6675
69.3600 4141.6675
69.3800 4191.6675
69.4000 4291.6675
69.4200 4266.6675
69.4400 4258.3325
69.4600 4633.3325
69.4800 4250.0000
69.5000 4333.3325
69.5200 4725.0000
69.5400 4808.3325
69.5600 5241.6675
69.5800 5583.3325
69.6000 6233.3325
69.6200 7758.3325
69.6400 8550.0000
69.6600 9133.3325
69.6800 8708.3325
69.7000 7850.0000
69.7200 7158.3325
69.7400 6816.6675
69.7600 6225.0000
69.7800 5875.0000
69.8000 5891.6675
69.8200 5950.0000
69.8400 6683.3325
69.8600 6808.3325
69.8800 6475.0000
69.9000 5941.6675
69.9200 5558.3325
69.9400 5483.3325
69.9600 5491.6675
69.9800 5016.6675
70.0000 4558.3325
70.0200 4383.3325
70.0400 4266.6675
70.0600 4266.6675
70.0800 4250.0000
70.1000 4250.0000
70.1200 3958.3325
70.1400 4025.0000
70.1600 4300.0000
70.1800 4291.6675
70.2000 4200.0000
70.2200 4216.6675
70.2400 4216.6675
70.2600 4100.0000
70.2800 4075.0000
70.3000 4091.6675
70.3200 3891.6675
70.3400 4008.3325
70.3600 3800.0000
70.3800 4183.3325
70.4000 4258.3325
70.4200 3841.6675
70.4400 3991.6675
70.4600 3825.0000
70.4800 3833.3325
70.5000 4075.0000
70.5200 4150.0000
70.5400 3725.0000
70.5600 3925.0000
70.5800 3850.0000
70.6000 4041.6675
70.6200 3933.3325
70.6400 4150.0000
70.6600 3958.3325
70.6800 4158.3325
70.7000 4258.3325
70.7200 3816.6675
70.7400 3758.3325
70.7600 4083.3325
70.7800 4150.0000
70.8000 3808.3325
70.8200 3708.3325
70.8400 4100.0000
70.8600 3750.0000
70.8800 3991.6675
70.9000 4125.0000
70.9200 3841.6675
70.9400 3975.0000
70.9600 4175.0000
70.9800 3833.3325
71.0000 3933.3325
71.0200 3625.0000
71.0400 4191.6675
71.0600 4016.6675
71.0800 3966.6675
71.1000 3558.3325
71.1200 3783.3325
71.1400 3866.6675
71.1600 3758.3325
71.1800 3775.0000
71.2000 3825.0000
71.2200 3841.6675
71.2400 3658.3325
71.2600 3891.6675
71.2800 3883.3325
71.3000 4000.0000
71.3200 4175.0000
71.3400 4000.0000
71.3600 3791.6675
71.3800 4075.0000
71.4000 4275.0000
71.4200 4341.6675
71.4400 4025.0000
71.4600 3958.3325
71.4800 4208.3325
71.5000 3900.0000
71.5200 3866.6675
71.5400 4133.3325
71.5600 4066.6675
71.5800 4066.6675
71.6000 4033.3325
71.6200 3941.6675
71.6400 3791.6675
71.6600 3983.3325
71.6800 3941.6675
71.7000 4266.6675
71.7200 3791.6675
71.7400 4075.0000
71.7600 4266.6675
71.7800 3983.3325
71.8000 4025.0000
71.8200 4258.3325
71.8400 4058.3325
71.8600 3891.6675
71.8800 4141.6675
71.9000 4266.6675
71.9200 4208.3325
71.9400 3866.6675
71.9600 3950.0000
71.9800 4141.6675
72.0000 4100.0000
72.0200 4016.6675
72.0400 4083.3325
72.0600 4175.0000
72.0800 3783.3325
72.1000 3941.6675
72.1200 4083.3325
72.1400 3941.6675
72.1600 3791.6675
72.1800 4016.6675
72.2000 4083.3325
72.2200 3891.6675
72.2400 3850.0000
72.2600 4183.3325
72.2800 4183.3325
72.3000 4233.3325
72.3200 3966.6675
72.3400 3883.3325
72.3600 4208.3325
72.3800 3900.0000
72.4000 3866.6675
72.4200 4158.3325
72.4400 4208.3325
72.4600 4183.3325
72.4800 4016.6675
72.5000 3966.6675
72.5200 4133.3325
72.5400 4083.3325
72.5600 4166.6675
72.5800 4133.3325
72.6000 4308.3325
72.6200 4300.0000
72.6400 4525.0000
72.6600 4275.0000
72.6800 4316.6675
72.7000 4566.6675
72.7200 4358.3325
72.7400 4425.0000
72.7600 4666.6675
72.7800 4408.3325
72.8000 4666.6675
72.8200 5150.0000
72.8400 5133.3325
72.8600 5325.0000
72.8800 5416.6675
72.9000 6025.0000
72.9200 6633.3325
72.9400 7900.0000
72.9600 9908.3325
72.9800 11975.0000
73.0000 15175.0000
73.0200 16208.3325
73.0400 14216.6675
73.0600 12233.3325
73.0800 11075.0000
73.1000 9783.3325
73.1200 8550.0000
73.1400 7366.6675
73.1600 8133.3325
73.1800 8633.3325
73.2000 9700.0000
73.2200 10133.3325
73.2400 10100.0000
73.2600 9533.3325
73.2800 8433.3325
73.3000 7700.0000
73.3200 6858.3325
73.3400 6050.0000
73.3600 5383.3325
73.3800 5233.3325
73.4000 5241.6675
73.4200 4716.6675
73.4400 4566.6675
73.4600 4658.3325
73.4800 4391.6675
73.5000 4533.3325
73.5200 4408.3325
73.5400 4566.6675
73.5600 4225.0000
73.5800 4300.0000
73.6000 4441.6675
73.6200 4150.0000
73.6400 4266.6675
73.6600 3958.3325
73.6800 4033.3325
73.7000 4325.0000
73.7200 4383.3325
73.7400 4350.0000
73.7600 4166.6675
73.7800 3833.3325
73.8000 4091.6675
73.8200 4258.3325
73.8400 4183.3325
73.8600 3975.0000
73.8800 3791.6675
73.9000 3700.0000
73.9200 4008.3325
73.9400 4125.0000
73.9600 4083.3325
73.9800 3983.3325
74.0000 4033.3325
74.0200 4008.3325
74.0400 3816.6675
74.0600 4050.0000
74.0800 4108.3325
74.1000 3933.3325
74.1200 3950.0000
74.1400 3675.0000
74.1600 4075.0000
74.1800 4133.3325
74.2000 4058.3325
74.2200 3750.0000
74.2400 3741.6675
74.2600 3858.3325
74.2800 4183.3325
74.3000 3900.0000
74.3200 4141.6675
74.3400 4150.0000
74.3600 4158.3325
74.3800 3800.0000
74.4000 4175.0000
74.4200 4208.3325
74.4400 3616.6675
74.4600 4050.0000
74.4800 3716.6675
74.5000 4250.0000
74.5200 4058.3325
74.5400 3858.3325
74.5600 4000.0000
74.5800 4225.0000
74.6000 4116.6675
74.6200 4041.6675
74.6400 3791.6675
74.6600 3658.3325
74.6800 3841.6675
74.7000 4125.0000
74.7200 3666.6675
74.7400 3925.0000
74.7600 4100.0000
74.7800 4308.3325
74.8000 4516.6675
74.8200 4033.3325
74.8400 3991.6675
74.8600 4058.3325
74.8800 3925.0000
74.9000 4141.6675
74.9200 4383.3325
74.9400 4425.0000
74.9600 4733.3325
74.9800 5025.0000
75.0000 5166.6675
75.0200 5125.0000
75.0400 5125.0000
75.0600 4625.0000
75.0800 4541.6675
75.1000 4416.6675
75.1200 4200.0000
75.1400 4283.3325
75.1600 4433.3325
75.1800 4175.0000
75.2000 4683.3325
75.2200 4325.0000
75.2400 4441.6675
75.2600 4233.3325
75.2800 4391.6675
75.3000 4433.3325
75.3200 4175.0000
75.3400 3991.6675
75.3600 4216.6675
75.3800 4133.3325
75.4000 4258.3325
75.4200 4075.0000
75.4400 4108.3325
75.4600 4241.6675
75.4800 3791.6675
75.5000 3583.3325
75.5200 3833.3325
75.5400 3950.0000
75.5600 4125.0000
75.5800 3633.3325
75.6000 3575.0000
75.6200 4200.0000
75.6400 4116.6675
75.6600 4241.6675
75.6800 3950.0000
75.7000 3933.3325
75.7200 4016.6675
75.7400 3750.0000
75.7600 3616.6675
75.7800 3775.0000
75.8000 3816.6675
75.8200 3841.6675
75.8400 3850.0000
75.8600 3900.0000
75.8800 4058.3325
75.9000 3975.0000
75.9200 3708.3325
75.9400 3616.6675
75.9600 3750.0000
75.9800 3483.3325
76.0000 3775.0000
76.0200 3816.6675
76.0400 3608.3325
76.0600 4066.6675
76.0800 3700.0000
76.1000 3766.6675
76.1200 3891.6675
76.1400 3866.6675
76.1600 3900.0000
76.1800 3775.0000
76.2000 3600.0000
76.2200 3766.6675
76.2400 3941.6675
76.2600 3925.0000
76.2800 3916.6675
76.3000 3975.0000
76.3200 3958.3325
76.3400 3925.0000
76.3600 3791.6675
76.3800 3858.3325
76.4000 4108.3325
76.4200 4041.6675
76.4400 3908.3325
76.4600 3758.3325
76.4800 4008.3325
76.5000 3708.3325
76.5200 4075.0000
76.5400 3683.3325
76.5600 4058.3325
76.5800 3658.3325
76.6000 3825.0000
76.6200 3825.0000
76.6400 3975.0000
76.6600 3616.6675
76.6800 3875.0000
76.7000 3841.6675
76.7200 3841.6675
76.7400 3883.3325
76.7600 3575.0000
76.7800 3650.0000
76.8000 3891.6675
76.8200 3691.6675
76.8400 3683.3325
76.8600 3833.3325
76.8800 3800.0000
76.9000 3750.0000
76.9200 4033.3325
76.9400 3875.0000
76.9600 3591.6675
76.9800 3883.3325
77.0000 3958.3325
77.0200 3833.3325
77.0400 4141.6675
77.0600 3916.6675
77.0800 3858.3325
77.1000 3833.3325
77.1200 3666.6675
77.1400 3750.0000
77.1600 3825.0000
77.1800 4041.6675
77.2000 3941.6675
77.2200 3900.0000
77.2400 3758.3325
77.2600 3891.6675
77.2800 3866.6675
77.3000 3708.3325
77.3200 3950.0000
77.3400 3800.0000
77.3600 3741.6675
77.3800 3933.3325
77.4000 4083.3325
77.4200 3566.6675
77.4400 4183.3325
77.4600 3833.3325
77.4800 3716.6675
77.5000 3558.3325
77.5200 3900.0000
77.5400 4000.0000
77.5600 3975.0000
77.5800 3733.3325
77.6000 4016.6675
77.6200 3633.3325
77.6400 4175.0000
77.6600 4308.3325
77.6800 4025.0000
77.7000 3941.6675
77.7200 4000.0000
77.7400 3825.0000
77.7600 4125.0000
77.7800 3800.0000
77.8000 3800.0000
77.8200 3833.3325
77.8400 4050.0000
77.8600 3883.3325
77.8800 3966.6675
77.9000 3983.3325
77.9200 3991.6675
77.9400 3975.0000
77.9600 3916.6675
77.9800 3941.6675
78.0000 3916.6675
78.0200 3983.3325
78.0400 3725.0000
78.0600 3866.6675
78.0800 4075.0000
78.1000 3841.6675
78.1200 3775.0000
78.1400 4108.3325
78.1600 4366.6675
78.1800 4316.6675
78.2000 4375.0000
78.2200 4291.6675
78.2400 4866.6675
78.2600 4733.3325
78.2800 4766.6675
78.3000 4800.0000
78.3200 4658.3325
78.3400 4100.0000
78.3600 4308.3325
78.3800 4316.6675
78.4000 4391.6675
78.4200 3983.3325
78.4400 4466.6675
78.4600 4191.6675
78.4800 4358.3325
78.5000 4400.0000
78.5200 4308.3325
78.5400 4275.0000
78.5600 4166.6675
78.5800 4091.6675
78.6000 4466.6675
78.6200 4116.6675
78.6400 3975.0000
78.6600 3866.6675
78.6800 4058.3325
78.7000 4050.0000
78.7200 3708.3325
78.7400 3766.6675
78.7600 3925.0000
78.7800 4041.6675
78.8000 4183.3325
78.8200 3916.6675
78.8400 3808.3325
78.8600 3808.3325
78.8800 3933.3325
78.9000 3766.6675
78.9200 4300.0000
78.9400 3958.3325
78.9600 3783.3325
78.9800 3900.0000
79.0000 3858.3325
79.0200 4166.6675
79.0400 4066.6675
79.0600 4083.3325
79.0800 4275.0000
79.1000 4283.3325
79.1200 4233.3325
79.1400 4108.3325
79.1600 3991.6675
79.1800 3891.6675
79.2000 3908.3325
79.2200 3816.6675
79.2400 4108.3325
79.2600 3908.3325
79.2800 4058.3325
79.3000 3900.0000
79.3200 4016.6675
79.3400 4200.0000
79.3600 4183.3325
79.3800 4225.0000
79.4000 4016.6675
79.4200 3958.3325
79.4400 3816.6675
79.4600 4108.3325
79.4800 3941.6675
79.5000 4050.0000
79.5200 3941.6675
79.5400 4000.0000
79.5600 3841.6675
79.5800 4100.0000
79.6000 3950.0000
79.6200 4050.0000
79.6400 3950.0000
79.6600 4175.0000
79.6800 4291.6675
79.7000 4008.3325
79.7200 4216.6675
79.7400 4091.6675
79.7600 4000.0000
79.7800 4108.3325
79.8000 4125.0000
79.8200 4191.6675
79.8400 3991.6675
79.8600 4091.6675
79.8800 3925.0000
79.9000 3950.0000
79.9200 4058.3325
79.9400 4125.0000
79.9600 4250.0000
79.9800 4091.6675
80.0000 4441.6675
80.0200 4108.3325
80.0400 4300.0000
80.0600 4491.6675
80.0800 4691.6675
80.1000 4808.3325
80.1200 4775.0000
80.1400 5766.6675
80.1600 6550.0000
80.1800 7316.6675
80.2000 7683.3325
80.2200 7950.0000
80.2400 7975.0000
80.2600 6741.6675
80.2800 6525.0000
80.3000 5975.0000
80.3200 5375.0000
80.3400 5400.0000
80.3600 5491.6675
80.3800 5183.3325
80.4000 5575.0000
80.4200 6166.6675
80.4400 6441.6675
80.4600 6325.0000
80.4800 5975.0000
80.5000 5691.6675
80.5200 5550.0000
80.5400 5508.3325
80.5600 5216.6675
80.5800 5141.6675
80.6000 4900.0000
80.6200 4866.6675
80.6400 4816.6675
80.6600 4408.3325
80.6800 4600.0000
80.7000 4758.3325
80.7200 5166.6675
80.7400 5175.0000
80.7600 5058.3325
80.7800 5950.0000
80.8000 6508.3325
80.8200 7675.0000
80.8400 9166.6675
80.8600 9375.0000
80.8800 8700.0000
80.9000 8241.6675
80.9200 7233.3325
80.9400 6625.0000
80.9600 6300.0000
80.9800 5858.3325
81.0000 5491.6675
81.0200 5466.6675
81.0400 5791.6675
81.0600 6100.0000
81.0800 6766.6675
81.1000 6691.6675
81.1200 6716.6675
81.1400 5925.0000
81.1600 5708.3325
81.1800 5725.0000
81.2000 5350.0000
81.2200 4708.3325
81.2400 4725.0000
81.2600 4483.3325
81.2800 4233.3325
81.3000 4450.0000
81.3200 4466.6675
81.3400 4183.3325
81.3600 4400.0000
81.3800 4300.0000
81.4000 4250.0000
81.4200 4058.3325
81.4400 4058.3325
81.4600 4083.3325
81.4800 4075.0000
81.5000 3950.0000
81.5200 4116.6675
81.5400 4108.3325
81.5600 4300.0000
81.5800 4191.6675
81.6000 4125.0000
81.6200 3858.3325
81.6400 4166.6675
81.6600 4491.6675
81.6800 4183.3325
81.7000 3800.0000
81.7200 3966.6675
81.7400 4008.3325
81.7600 4000.0000
81.7800 4225.0000
81.8000 4075.0000
81.8200 4266.6675
81.8400 3883.3325
81.8600 3975.0000
81.8800 4258.3325
81.9000 4108.3325
81.9200 4291.6675
81.9400 4116.6675
81.9600 4025.0000
81.9800 4408.3325
82.0000 4100.0000
82.0200 4150.0000
82.0400 4108.3325
82.0600 4091.6675
82.0800 3991.6675
82.1000 4016.6675
82.1200 4425.0000
82.1400 4391.6675
82.1600 4066.6675
82.1800 4108.3325
82.2000 4116.6675
82.2200 4250.0000
82.2400 4266.6675
82.2600 4333.3325
82.2800 4216.6675
82.3000 4216.6675
82.3200 4141.6675
82.3400 4233.3325
82.3600 4133.3325
82.3800 4366.6675
82.4000 4050.0000
82.4200 4183.3325
82.4400 4250.0000
82.4600 4166.6675
82.4800 3950.0000
82.5000 4233.3325
82.5200 4133.3325
82.5400 4100.0000
82.5600 4050.0000
82.5800 4225.0000
82.6000 4133.3325
82.6200 4300.0000
82.6400 4283.3325
82.6600 4191.6675
82.6800 4433.3325
82.7000 4291.6675
82.7200 4333.3325
82.7400 4541.6675
82.7600 4316.6675
82.7800 4425.0000
82.8000 4191.6675
82.8200 4283.3325
82.8400 4333.3325
82.8600 4200.0000
82.8800 4475.0000
82.9000 4275.0000
82.9200 4283.3325
82.9400 4366.6675
82.9600 4391.6675
82.9800 4400.0000
83.0000 4433.3325
83.0200 4525.0000
83.0400 4575.0000
83.0600 4816.6675
83.0800 4483.3325
83.1000 4741.6675
83.1200 5216.6675
83.1400 5008.3325
83.1600 5175.0000
83.1800 5183.3325
83.2000 5400.0000
83.2200 5425.0000
83.2400 5675.0000
83.2600 6041.6675
83.2800 6025.0000
83.3000 7391.6675
83.3200 7508.3325
83.3400 8658.3325
83.3600 10408.3325
83.3800 13591.6675
83.4000 17108.3325
83.4200 19208.3325
83.4400 18816.6675
83.4600 16466.6675
83.4800 14425.0000
83.5000 12925.0000
83.5200 11000.0000
83.5400 9383.3325
83.5600 8625.0000
83.5800 7858.3325
83.6000 8091.6675
83.6200 8833.3325
83.6400 10733.3325
83.6600 11716.6675
83.6800 12191.6675
83.7000 11775.0000
83.7200 10500.0000
83.7400 9833.3325
83.7600 7983.3325
83.7800 7233.3325
83.8000 6358.3325
83.8200 6225.0000
83.8400 5691.6675
83.8600 5550.0000
83.8800 5200.0000
83.9000 5425.0000
83.9200 5208.3325
83.9400 4983.3325
83.9600 4658.3325
83.9800 4425.0000
84.0000 4608.3325
84.0200 4516.6675
84.0400 4458.3325
84.0600 4566.6675
84.0800 4391.6675
84.1000 4366.6675
84.1200 4541.6675
84.1400 4333.3325
84.1600 4116.6675
84.1800 4183.3325
84.2000 4241.6675
84.2200 4150.0000
84.2400 4266.6675
84.2600 4208.3325
84.2800 4083.3325
84.3000 4100.0000
84.3200 4008.3325
84.3400 3841.6675
84.3600 4091.6675
84.3800 4008.3325
84.4000 3933.3325
84.4200 4108.3325
84.4400 3983.3325
84.4600 4000.0000
84.4800 4200.0000
84.5000 4283.3325
84.5200 4358.3325
84.5400 3966.6675
84.5600 4016.6675
84.5800 3975.0000
84.6000 3716.6675
84.6200 3933.3325
84.6400 4183.3325
84.6600 3716.6675
84.6800 3991.6675
84.7000 3700.0000
84.7200 3908.3325
84.7400 3891.6675
84.7600 3983.3325
84.7800 3916.6675
84.8000 3975.0000
84.8200 4000.0000
84.8400 4191.6675
84.8600 3908.3325
84.8800 4016.6675
84.9000 4366.6675
84.9200 3891.6675
84.9400 4025.0000
84.9600 3991.6675
84.9800 3916.6675
85.0000 3825.0000
85.0200 4016.6675
85.0400 4108.3325
85.0600 4241.6675
85.0800 3958.3325
85.1000 4016.6675
85.1200 3958.3325
85.1400 3891.6675
85.1600 4175.0000
85.1800 4050.0000
85.2000 4225.0000
85.2200 4416.6675
85.2400 3983.3325
85.2600 4233.3325
85.2800 4608.3325
85.3000 4891.6675
85.3200 5100.0000
85.3400 5075.0000
85.3600 4925.0000
85.3800 5175.0000
85.4000 4650.0000
85.4200 4550.0000
85.4400 4558.3325
85.4600 4550.0000
85.4800 4366.6675
85.5000 4283.3325
85.5200 4175.0000
85.5400 4291.6675
85.5600 4116.6675
85.5800 4650.0000
85.6000 4575.0000
85.6200 4666.6675
85.6400 4691.6675
85.6600 4258.3325
85.6800 4141.6675
85.7000 3816.6675
85.7200 3983.3325
85.7400 3900.0000
85.7600 4275.0000
85.7800 3858.3325
85.8000 3983.3325
85.8200 3958.3325
85.8400 3875.0000
85.8600 4033.3325
85.8800 3991.6675
85.9000 4091.6675
85.9200 4175.0000
85.9400 3800.0000
85.9600 3841.6675
85.9800 4033.3325
86.0000 4025.0000
86.0200 3950.0000
86.0400 3883.3325
86.0600 3850.0000
86.0800 3566.6675
86.1000 3941.6675
86.1200 4066.6675
86.1400 3775.0000
86.1600 3816.6675
86.1800 3491.6675
86.2000 3866.6675
86.2200 4008.3325
86.2400 4058.3325
86.2600 4100.0000
86.2800 4283.3325
86.3000 3766.6675
86.3200 3891.6675
86.3400 3691.6675
86.3600 3816.6675
86.3800 3841.6675
86.4000 3908.3325
86.4200 4066.6675
86.4400 3933.3325
86.4600 3833.3325
86.4800 4116.6675
86.5000 3908.3325
86.5200 4066.6675
86.5400 3925.0000
86.5600 3908.3325
86.5800 3891.6675
86.6000 3666.6675
86.6200 3741.6675
86.6400 3716.6675
86.6600 4025.0000
86.6800 3616.6675
86.7000 3683.3325
86.7200 3675.0000
86.7400 3791.6675
86.7600 3775.0000
86.7800 3950.0000
86.8000 3733.3325
86.8200 3508.3325
86.8400 3666.6675
86.8600 3891.6675
86.8800 4191.6675
86.9000 3808.3325
86.9200 3883.3325
86.9400 3700.0000
86.9600 3533.3325
86.9800 3875.0000
87.0000 3900.0000
87.0200 3850.0000
87.0400 3766.6675
87.0600 3616.6675
87.0800 4041.6675
87.1000 3891.6675
87.1200 3875.0000
87.1400 3875.0000
87.1600 3783.3325
87.1800 3316.6675
87.2000 3958.3325
87.2200 3800.0000
87.2400 4008.3325
87.2600 3483.3325
87.2800 3933.3325
87.3000 3741.6675
87.3200 3766.6675
87.3400 3616.6675
87.3600 3925.0000
87.3800 3991.6675
87.4000 4033.3325
87.4200 3800.0000
87.4400 3933.3325
87.4600 3541.6675
87.4800 4066.6675
87.5000 3766.6675
87.5200 3825.0000
87.5400 3991.6675
87.5600 3741.6675
87.5800 3916.6675
87.6000 3741.6675
87.6200 3533.3325
87.6400 3583.3325
87.6600 4083.3325
87.6800 4025.0000
87.7000 3791.6675
87.7200 3716.6675
87.7400 3591.6675
87.7600 3550.0000
87.7800 3933.3325
87.8000 4200.0000
87.8200 3716.6675
87.8400 3633.3325
87.8600 3816.6675
87.8800 3925.0000
87.9000 3950.0000
87.9200 3858.3325
87.9400 3566.6675
87.9600 3916.6675
87.9800 4066.6675
88.0000 3766.6675
88.0200 4091.6675
88.0400 3525.0000
88.0600 4058.3325
88.0800 3808.3325
88.1000 4050.0000
88.1200 4033.3325
88.1400 4208.3325
88.1600 4075.0000
88.1800 4016.6675
88.2000 3833.3325
88.2200 3875.0000
88.2400 3933.3325
88.2600 3541.6675
88.2800 3666.6675
88.3000 4183.3325
88.3200 3991.6675
88.3400 3708.3325
88.3600 3733.3325
88.3800 3741.6675
88.4000 4033.3325
88.4200 4025.0000
88.4400 3750.0000
88.4600 3833.3325
88.4800 3758.3325
88.5000 3600.0000
88.5200 3958.3325
88.5400 3966.6675
88.5600 4033.3325
88.5800 3908.3325
88.6000 3858.3325
88.6200 3841.6675
88.6400 3825.0000
88.6600 3658.3325
88.6800 3633.3325
88.7000 4258.3325
88.7200 3816.6675
88.7400 3916.6675
88.7600 3925.0000
88.7800 4133.3325
88.8000 3641.6675
88.8200 3783.3325
88.8400 3775.0000
88.8600 3850.0000
88.8800 3675.0000
88.9000 3583.3325
88.9200 3975.0000
88.9400 3741.6675
88.9600 3750.0000
88.9800 3741.6675
89.0000 3766.6675
89.0200 3916.6675
89.0400 3800.0000
89.0600 3550.0000
89.0800 3916.6675
89.1000 4066.6675
89.1200 3966.6675
89.1400 3925.0000
89.1600 4066.6675
89.1800 3883.3325
89.2000 3950.0000
89.2200 3575.0000
89.2400 3500.0000
89.2600 3483.3325
89.2800 3850.0000
89.3000 4025.0000
89.3200 4033.3325
89.3400 3750.0000
89.3600 3941.6675
89.3800 3650.0000
89.4000 3941.6675
89.4200 3641.6675
89.4400 3808.3325
89.4600 3758.3325
89.4800 3891.6675
89.5000 3783.3325
89.5200 3850.0000
89.5400 3933.3325
89.5600 3808.3325
89.5800 3900.0000
89.6000 3958.3325
89.6200 3633.3325
89.6400 3891.6675
89.6600 3800.0000
89.6800 4000.0000
89.7000 3833.3325
89.7200 4141.6675
89.7400 3816.6675
89.7600 3866.6675
89.7800 3716.6675
89.8000 3641.6675
89.8200 4058.3325
89.8400 4200.0000
89.8600 3700.0000
89.8800 3800.0000
89.9000 4000.0000
89.9200 4033.3325
89.9400 4225.0000
89.9600 4200.0000
89.9800 3950.0000
90.0000 3925.0000
